trigger,category,rt,amplitude
141,0,0.6015625,4554.03317322317
142,0,0.515625,5988.2182130587
253,59,NaN,47.9861241994004
151,0,0.4140625,4356.52063930404
141,0,0.59375,4529.40172231036
142,0,0.4296875,4535.7510830984
253,0,0.59375,76.2242321445043
241,0,0.390625,47.3030589641527
152,0,0.4609375,5598.78996222784
251,0,0.328125,86.2945711735106
241,59,NaN,35.3286239090906
152,0,0.515625,6133.48932392576
141,0,0.6328125,5250.29352544255
142,0,0.5546875,3406.49313998608
253,59,NaN,39.5469586091951
151,0,0.6015625,4885.58326128738
253,0,0.5546875,63.4003346649999
153,0,0.5,3741.64495489963
253,59,NaN,31.428394233359
241,59,NaN,38.1753642934139
152,0,0.4921875,4363.17729014731
251,59,NaN,19.7004841172614
241,59,NaN,28.8149693546175
242,59,NaN,21.8094196780815
153,0,0.4609375,4111.88688736904
251,59,NaN,43.3294044505138
241,99,NaN,48.8186326962246
242,59,NaN,37.8532089100723
153,0,0.515625,3914.02808318367
141,0,0.578125,4091.36159786369
142,0,0.546875,3357.65086590882
253,59,NaN,48.0423202798774
241,59,NaN,22.4596165930053
242,59,NaN,32.1558770874207
153,0,0.59375,5043.07535077954
141,0,0.5625,3316.62020670683
142,0,0.609375,2807.56220564146
253,59,NaN,36.0813936381231
241,0,0.7265625,67.989745277285
152,99,NaN,3536.4202540821
141,0,0.5625,3759.22840232954
142,99,NaN,2773.32252455215
253,59,NaN,46.7557851690318
241,0,0.75,51.3071783986287
242,59,NaN,28.6144073156851
153,0,0.53125,4497.41706237515
251,99,NaN,55.2541378455547
241,0,1,71.5085321008014
242,0,1.0078125,42.4248519181705
153,0,0.4453125,3460.91587358376
141,0,0.546875,3705.76062954208
142,0,0.5859375,3098.087595192
253,0,0.8515625,67.5508265126666
151,0,0.6171875,3288.75879907026
253,99,NaN,122.2132690119
241,0,0.5234375,139.232059414339
152,0,0.578125,4730.14454346114
141,0,0.546875,3893.52364612081
252,59,NaN,29.8398499438988
151,99,NaN,3559.90841291649
141,0,0.5,3927.73778259572
252,59,NaN,40.1314858805697
241,59,NaN,38.768708748155
242,0,0.59375,60.5100063959259
153,99,NaN,3098.66079518684
141,99,NaN,3273.6026346264
252,99,NaN,70.6027904219691
241,59,NaN,40.0364345890885
152,0,0.453125,4688.13619194294
141,0,0.453125,3804.86604676681
142,0,0.453125,3733.20931131737
253,0,0.5859375,54.53867545992
151,0,0.515625,3370.3490952474
253,0,0.703125,56.0053909016926
241,0,0.7734375,50.1081465058566
152,59,NaN,747.835449805031
141,0,0.4296875,3625.03197015159
252,59,NaN,47.142854014465
241,0,0.8828125,54.2122188012041
152,0,0.4375,4421.30115307602
141,0,0.59375,3608.49208560202
142,0,0.4765625,3626.89841604871
253,59,NaN,38.2949760238874
241,59,NaN,24.8499383353703
242,99,NaN,45.6275789135663
153,0,0.4765625,4408.72351876991
141,0,0.46875,4276.63883917878
252,59,NaN,32.8705035857098
241,59,NaN,39.2970675753514
242,99,NaN,43.1401467422822
153,0,0.546875,4571.1174370638
251,59,NaN,29.2862293500113
241,59,NaN,35.1621460740952
152,0,0.46875,3902.7051603746
141,0,0.59375,3858.84223063026
252,0,0.65625,64.8246245255355
241,99,NaN,63.230210077942
152,0,0.4609375,3590.36594071464
141,0,0.4453125,4026.5982471932
252,59,NaN,33.7404921666732
151,0,0.5234375,3600.66832218789
141,0,0.5234375,3922.00370954722
142,99,NaN,3690.97290882476
253,59,NaN,48.1444937499909
241,59,NaN,42.169813865477
242,59,NaN,23.8224872147325
153,0,0.6015625,2447.25067662758
141,0,0.484375,3620.35672197186
142,0,0.5078125,3376.14576218237
253,59,NaN,50.716369424947
151,0,0.578125,3112.89078038364
253,59,NaN,35.9645815088194
153,0,0.484375,5193.93095675542
253,0,0.8203125,60.0420969982361
241,99,NaN,63.1616826496043
242,0,0.53125,56.2631286190995
153,0,0.359375,4614.89607656873
141,0,0.4140625,4821.10699141649
252,59,NaN,50.8565330638076
151,0,0.359375,3916.08334177038
141,0,0.3671875,3246.61572738058
252,0,0.3671875,124.253828296614
151,0,0.6328125,3403.69489938419
141,0,0.40625,4385.68983613114
142,0,0.5390625,3690.16590379678
253,0,0.3671875,82.0648924807916
241,59,NaN,34.5315874595306
242,0,0.359375,67.1511737637639
153,0,0.4765625,4321.09955014429
251,0,0.609375,71.47408767497
241,0,0.46875,105.776659211283
242,0,0.4296875,100.46061273605
153,0,0.484375,4367.89427799153
141,0,0.640625,3878.78300463656
142,0,0.6015625,3854.41073522637
253,0,0.375,121.667217661196
241,59,NaN,43.4699372110979
242,0,0.4765625,75.1668368973796
153,0,0.4765625,3892.70667238173
251,50,NaN,30.0238911678899
241,59,NaN,42.8488404818124
152,0,0.4296875,3019.12882275339
141,0,0.4921875,2947.00221650802
252,0,0.328125,60.8067313016388
151,0,0.453125,3060.96997617719
141,0,0.4765625,3653.38830271781
252,0,0.390625,63.4058450125461
241,0,0.3046875,75.3382684950565
152,0,0.5859375,3316.76416417803
141,0,0.4921875,3088.58509836975
142,0,0.546875,2953.58161645001
253,0,0.5546875,69.6290690707072
151,0,0.4765625,3234.24096416004
141,0,0.4921875,3404.70413343231
252,59,NaN,46.3172401991854
241,0,0.7265625,60.1766787352093
152,0,0.5390625,3032.0078763269
251,0,0.3359375,68.8685581955869
241,0,0.5234375,70.5095787066879
152,0,0.4609375,3249.84334074575
251,0,0.484375,139.252489682723
241,0,0.3828125,100.698659024835
242,0,0.5625,83.9512639130366
153,0,0.484375,2981.49270870055
251,0,0.328125,118.179381154786
241,0,0.4296875,176.193140434231
152,0,0.6171875,3182.70219143155
251,0,0.4765625,148.856143686059
241,0,0.453125,84.9845274087226
152,0,0.4609375,3507.97587300397
141,0,0.4140625,3211.67751124096
252,0,0.296875,101.58476985961
241,0,0.296875,132.003597217169
152,0,0.3203125,3476.02768933383
251,0,0.390625,105.567750658735
153,0,0.5546875,3473.16625114487
141,0,0.5703125,3920.54778453446
142,0,0.5234375,3282.04509465715
253,0,0.3671875,70.4205437671048
241,0,0.390625,51.6845317005913
242,0,0.40625,43.3776269936978
153,0,0.5078125,4677.93841447618
141,50,NaN,475.188282811165
252,0,0.640625,67.8809793226723
241,0,0.4609375,96.5205230991745
152,0,0.375,4762.63127283587
141,0,0.4921875,3908.13575905266
142,0,0.515625,3956.27965491724
253,0,0.4140625,90.6318189109135
151,0,0.53125,3397.31232111787
141,0,0.4375,3332.77519140374
142,0,0.5390625,3253.29257989219
253,0,0.296875,90.5842815599832
241,0,0.3359375,58.7610662839096
152,0,0.484375,3983.59330332503
141,0,0.4453125,3203.41975212238
142,0,0.4453125,2969.03303561445
253,0,0.40625,123.03525629917
241,0,0.484375,65.9043870231451
152,0,0.46875,4253.56581776799
141,0,0.3984375,4004.54257778255
142,0,0.4140625,3007.05549839965
253,0,0.4921875,104.065978894197
241,0,0.328125,71.5184530902741
152,0,0.484375,3769.49790552991
141,0,0.4921875,3352.81820178168
142,0,0.515625,3378.65321370255
253,0,0.3203125,149.868599362109
151,0,0.53125,3220.99310522697
253,0,0.6875,57.9085660746918
241,0,0.578125,66.4555236726145
242,59,NaN,41.2028706221066
153,0,0.453125,3464.31274322397
251,0,0.3984375,163.900350392827
153,0,0.3671875,3706.37478329079
253,0,0.4140625,147.267641954774
241,0,0.4453125,153.125368011101
242,0,0.671875,74.8401562460614
153,0,0.3984375,3591.37670963959
141,0,0.375,4190.38412830888
142,0,0.3828125,3575.83990811021
253,0,0.484375,139.148891830468
241,0,0.5703125,120.576481491424
242,0,0.5,173.302854977386
153,0,0.3515625,4556.96727630969
141,0,0.53125,3514.64575823302
252,0,0.484375,229.966403183515
241,0,0.6640625,161.375472485161
242,0,0.6015625,154.588211888063
153,0,0.5625,3711.90078735404
141,0,0.5078125,3076.69233762632
252,0,0.875,62.6148969299215
241,0,0.4453125,151.869808789984
152,0,0.453125,3854.13875054038
141,0,0.5234375,3948.9151170402
252,50,NaN,34.3501978140395
241,0,0.5,87.5697034640085
152,0,0.4921875,3101.90942425848
141,0,0.5234375,3596.56593865814
252,0,0.453125,150.469586730421
241,0,0.28125,208.754941883749
152,0,0.375,3491.68524214192
141,0,0.375,3575.62538365881
252,0,0.296875,166.74385352541
241,0,0.2890625,137.992169770733
152,0,0.5078125,4144.76359453635
141,50,NaN,199.452988125925
252,0,0.46875,143.63952592184
241,0,0.5234375,130.370616019373
242,0,0.703125,130.444715663834
153,0,0.4765625,4244.01671508579
251,0,0.453125,152.593211667918
241,0,0.453125,176.217471127618
152,0,0.4296875,4027.51867907088
141,0,0.4609375,4223.13083233781
142,0,0.4921875,3997.56674918836
253,0,0.375,181.561528334304
151,0,0.4765625,3540.61759747928
253,0,0.359375,190.847428226432
241,0,0.5390625,115.465542567571
242,0,0.5,160.653812361007
153,0,0.4296875,4121.78849037299
141,0,0.4140625,4088.48753385649
142,0,0.5078125,3365.50729004853
253,0,0.3828125,212.283905643224
151,0,0.4453125,3231.64104872209
253,0,0.34375,200.556029235683
241,0,0.34375,154.528762836465
242,0,0.4296875,141.059323307068
153,0,0.3359375,3770.29995150728
141,0,0.3828125,3174.68035293155
142,0,0.5546875,3861.16856835534
253,0,0.2890625,136.257957024036
151,0,0.5,3813.25438313049
141,0,0.4921875,3384.27428504988
252,0,0.4140625,166.626954778318
241,0,0.25,195.990535255907
152,0,0.46875,3900.23430342129
141,0,0.484375,3347.66318619162
252,0,0.3046875,229.012331558516
241,0,0.3828125,174.589024597872
242,0,0.53125,80.7678997854607
153,0,0.4765625,3195.57496687808
251,0,0.40625,100.951269711372
153,0,0.5,3903.41201370763
253,0,0.328125,164.233403636416
241,0,0.5546875,151.173021342909
242,0,0.4140625,172.083824555098
153,0,0.34375,4142.28239125651
141,0,0.5,4663.22146398407
252,0,0.4140625,153.130721464547
253,0,0.375,215.73994546409
153,0,0.375,3492.33486213065
141,0,0.484375,3345.59061165294
142,0,0.609375,4247.49455206111
253,0,0.3046875,171.119362081306
151,0,0.3984375,3522.44147416829
141,0,0.3671875,3706.88853788346
252,0,0.28125,205.434947065845
241,0,0.3125,157.659805857076
242,0,0.46875,148.349387356984
153,0,0.2890625,3628.74023164997
141,0,0.4296875,3844.85691471988
252,0,0.28125,164.937577580214
241,0,0.4375,175.817350776088
152,0,0.3203125,3720.96813345669
141,0,0.578125,4382.75162181829
142,0,0.4765625,3744.80767683032
253,0,0.5078125,130.008006535237
241,0,0.2890625,149.006431045924
152,0,0.578125,3440.04257409415
141,0,0.546875,3026.94846618307
142,59,NaN,103.318830123631
253,0,0.4375,141.280998335501
241,0,0.421875,149.145279018749
242,0,0.390625,154.522050929084
153,0,0.3203125,3619.31190152788
141,0,0.4296875,4442.25081207114
252,0,0.484375,171.029699748592
151,0,0.375,3741.14301914695
141,0,0.3671875,3576.3766237542
142,0,0.4453125,3370.9263806515
253,0,0.3203125,115.456448626537
241,0,0.28125,114.391466179087
242,0,0.46875,101.593480063521
153,0,0.421875,3895.08399879019
251,0,0.453125,168.180924672757
153,0,0.3359375,3679.57627817599
141,0,0.515625,4163.22874517492
252,0,0.3984375,182.592568220163
241,0,0.25,164.558522070788
152,0,0.3125,3148.91081482408
251,0,0.5,151.044275610357
241,0,0.40625,128.706966813583
152,0,0.46875,3411.40754436657
141,0,0.53125,3351.62713620949
252,0,0.7734375,56.8040867240504
241,99,NaN,54.9319065336314
152,0,0.484375,3264.36603786411
251,0,0.3046875,120.230044648136
241,0,0.4296875,111.565534707725
152,0,0.3671875,3353.52050555759
141,0,0.40625,2842.16356975616
142,0,0.4140625,3259.34295298453
253,0,0.296875,171.760769536757
151,0,0.5234375,2840.68896021445
141,0,0.4375,3078.01725668611
142,0,0.53125,2882.35597061945
253,0,0.5859375,99.561028040361
241,0,0.3125,108.314001329333
242,0,0.4296875,53.0020998270954
153,0,0.3828125,3415.97717650685
251,0,0.84375,63.1728974104089
241,0,0.546875,83.6952354094192
242,0,0.421875,92.7318500113055
153,0,0.546875,3322.412151881
141,0,0.5234375,3434.2629851976
142,0,0.375,3042.50263598706
152,50,NaN,123.700888645065
