trigger,category,rt,amplitude
141,0,0.3125,76.6123012386637
252,0,0.4453125,4696.92939570861
151,69,NaN,40.5271373295536
141,0,0.21875,50.1540119822387
252,0,0.4609375,2809.7725441624
241,0,0.3046875,1931.15198911661
242,0,0.3125,1377.54366256594
153,0,0.21875,57.3187336066359
141,0,0.2578125,43.0485018624217
142,0,0.2265625,70.650290304133
253,99,NaN,2815.71247459897
241,60,NaN,894.601119865058
152,0,0.328125,66.2256540685446
141,0,0.1953125,64.0181875661797
252,0,0.390625,1485.7483898684
241,0,0.4375,2012.56446406672
242,0,0.3203125,1099.69162698289
153,0,0.2734375,92.8445168043791
251,0,0.3984375,1887.83351166767
241,0,0.46875,306.607114204989
152,0,0.34375,59.0552814340571
251,0,0.3046875,1611.29824322077
241,0,0.59375,595.505925158521
242,0,0.46875,803.679535666778
153,0,0.3125,58.5405674204825
251,0,0.3515625,1140.57759958272
241,0,0.4140625,736.843048025669
152,0,0.34375,63.9953148147612
141,0,0.3828125,66.9250459523186
142,0,0.5625,88.2938214460397
253,50,NaN,181.420241151574
151,0,0.2734375,73.4032809877656
141,0,0.3203125,41.000801594337
142,59,NaN,27.4786022763757
253,0,0.28125,3000.23779695648
241,0,0.625,411.719809450461
242,0,0.6015625,748.609990527717
153,0,0.2265625,69.2140424692167
141,0,0.5234375,52.9565813889156
252,0,0.375,1719.68301534831
241,0,0.78125,571.535851575317
242,50,NaN,129.995878173375
153,0,0.25,71.6943859759353
251,0,0.5,1463.83777127262
241,0,0.4453125,945.618537332898
242,0,0.421875,852.406971789315
153,0,0.2109375,69.6802005571992
141,0,0.375,56.5271659317252
252,69,NaN,147.305736520366
241,0,0.328125,1864.29073326688
152,0,0.296875,63.8527221943845
141,0,0.328125,56.402106715456
142,0,0.2109375,70.3917490435896
253,0,0.2421875,2470.10839220918
151,0,0.1875,74.6412930851252
141,0,0.28125,45.5302936659314
142,0,0.2109375,54.7159834825799
253,0,0.265625,2592.75147024166
241,0,0.4453125,1313.67426495646
152,99,NaN,48.1392277928821
141,0,0.3203125,35.7888873155498
252,0,0.421875,1339.31857864633
241,0,0.515625,1148.0610052598
152,0,0.1875,55.23579170133
141,0,0.2421875,50.673050228211
142,0,0.2890625,44.9387218825913
253,0,0.3984375,2820.36396563778
241,0,0.4921875,633.416121658509
242,0,0.4140625,816.397898413182
153,0,0.3984375,69.7242939715012
251,0,0.5078125,1724.0595133309
153,0,0.171875,87.3094164175986
141,0,0.3671875,50.0679592126585
142,0,0.296875,58.2470585357755
253,0,0.484375,2489.01186113999
151,0,0.3359375,54.4901647151
141,0,0.328125,56.4828155623089
252,0,0.390625,1952.24416153226
241,0,0.5546875,464.556706719795
152,0,0.296875,93.5864429410744
141,0,0.4375,86.8029775523651
142,0,0.3203125,56.744283410661
253,0,0.2890625,2717.87633444039
241,0,0.421875,1010.44492304402
152,0,0.2109375,79.851798822346
141,0,0.34375,61.6165467812671
142,0,0.3203125,52.3113726283827
253,0,0.2578125,2996.28367370574
151,0,0.328125,87.29393658723
141,0,0.3125,50.8195975809169
252,0,0.40625,2971.61731522624
241,0,0.3203125,1791.92380812941
242,0,0.4140625,1142.58041634081
153,0,0.2734375,109.57220055475
251,69,NaN,2142.4506067757
241,60,NaN,1325.60490664628
242,0,0.328125,1486.43360735484
153,0,0.2890625,80.5672651739487
141,0,0.3125,71.6527830644094
252,0,0.2421875,2148.07038832049
241,0,0.3515625,849.474009090959
152,0,0.21875,55.137881512354
141,0,0.1640625,51.2248992302692
252,0,0.3046875,2329.66374174219
151,0,0.328125,73.1102885850539
141,0,0.2421875,45.0372778863451
252,0,0.40625,2634.37393678196
241,60,NaN,1040.01864940003
242,60,NaN,589.700267867155
153,0,0.328125,59.2992993668952
141,0,0.390625,64.0772972424621
252,0,0.2578125,1904.37545709255
151,0,0.3359375,53.4484011492313
141,0,0.25,69.1797650713609
252,0,0.2734375,2047.61534925899
241,0,0.484375,487.595927727131
242,0,0.375,889.699414876505
153,0,0.203125,49.2185995601477
251,0,0.4375,1285.2147433419
153,0,0.3125,47.2833957108421
141,0,0.2734375,62.5035685613775
252,0,0.4453125,2283.61989291808
241,60,NaN,705.456601017537
242,99,NaN,275.651049489325
153,0,0.34375,46.0700652237869
141,0,0.234375,65.4518895848868
142,0,0.6484375,39.4580785327168
253,0,0.34375,2010.13087995543
241,60,NaN,839.414685320683
242,0,0.359375,417.430304356915
153,0,0.8359375,151.818975952083
141,0,0.7421875,46.7318690394447
252,0,0.3203125,1784.78728517879
241,0,0.546875,721.96170810923
242,99,NaN,339.691633811965
153,0,0.359375,47.4349537490625
141,0,0.21875,67.2254627634249
142,0,0.734375,36.6921990608158
253,0,0.3359375,1715.78619382043
241,50,NaN,287.888538490997
152,0,0.2265625,65.7397703946368
251,0,0.3359375,1274.46611035043
153,99,NaN,92.1472801122227
141,0,0.40625,49.1825780240451
142,0,0.578125,56.0384837007714
253,0,0.234375,1950.26642636431
151,0,0.390625,61.2333576934742
253,0,0.296875,1208.02642023236
241,0,0.5546875,683.640561653758
242,0,0.5234375,499.233301369898
153,0,0.4140625,63.0069467110286
141,0,0.2734375,55.6881394757153
252,0,0.34375,1201.65292669223
151,0,0.3125,35.8706554392257
253,0,0.421875,747.373475999214
153,0,0.1796875,58.9183124391666
141,0,0.125,65.177032480228
252,0,0.34375,888.893838577101
241,50,NaN,178.206258986828
152,0,0.234375,54.761279807227
141,0,0.3984375,66.4546601450075
142,0,0.3046875,62.8101046075644
253,0,0.3359375,1533.24902359406
241,0,0.828125,825.403441518002
242,50,NaN,144.858999293778
153,99,NaN,63.2074661904398
141,0,0.5703125,50.6675436431634
142,0,0.4921875,52.8825969414113
253,0,0.328125,1539.01944168789
241,99,NaN,352.18293512383
152,0,0.2421875,34.2932667976709
251,0,0.3359375,965.706482491478
153,0,0.5234375,44.5074349203846
253,99,NaN,1181.93917592735
241,0,0.859375,342.089670189895
152,0,0.25,51.5301398689475
251,99,NaN,575.086552953087
241,50,NaN,246.507995616747
152,0,0.3125,91.109514968055
251,0,0.265625,5448.89034369212
241,60,NaN,2921.80935800759
242,0,0.390625,2854.21913397895
153,0,0.2578125,103.299416028436
141,0,0.265625,45.7717786035931
252,0,0.421875,3560.58055725451
241,0,0.3671875,2012.77679723889
152,0,0.265625,45.1726022456074
141,0,0.3203125,51.6767920178666
252,0,0.3359375,2737.51717167843
151,0,0.1640625,86.0568796809151
141,0,0.34375,57.0591093298813
142,0,0.3046875,81.4999735804064
253,0,0.25,3525.16455093592
241,0,0.3828125,2159.84363153116
242,60,NaN,1079.58496847647
153,0,0.171875,62.5401191309929
141,0,0.2109375,65.0381798771671
142,0,0.3203125,56.2963910203505
253,0,0.2109375,2783.3761054409
151,0,0.3046875,69.1268454746004
141,0,0.171875,52.480428510349
142,0,0.3515625,37.1529282149969
253,0,0.2265625,2231.4232228693
241,0,0.375,646.348446610319
152,60,NaN,62.1861393996946
141,0,0.1640625,73.4601727462457
142,99,NaN,42.6409003203954
253,0,0.3984375,2163.86433056556
241,0,0.640625,505.665137793811
152,0,0.3359375,57.7721696610524
251,0,0.3984375,1791.40560671747
241,0,0.390625,1221.89007128798
152,0,0.2890625,55.9985441735815
141,0,0.328125,46.9833906923075
252,0,0.375,2137.17489851285
151,99,NaN,67.6115183408224
141,0,0.3984375,56.2012382695778
252,0,0.3515625,1905.94421877042
241,0,0.4296875,1549.74039083266
242,0,0.40625,1127.63323282496
153,59,NaN,33.0216186560372
141,99,NaN,68.5958812379967
252,0,0.2734375,2233.2533915814
241,0,0.3984375,975.889533624612
242,60,NaN,432.667584055703
153,0,0.21875,78.0828172393229
251,0,0.3671875,1372.94996125059
241,0,0.2734375,850.878437511616
242,0,0.3515625,802.375529154856
153,0,0.2578125,78.462823383583
141,0,0.2578125,61.341332227482
142,60,NaN,55.7303679816222
253,0,0.359375,1881.40123466005
241,0,0.3359375,961.759980859476
152,0,0.2578125,65.559025563431
141,0,0.2265625,63.0530223345065
252,0,0.3125,1335.58739963733
241,0,0.5234375,635.423283089067
152,0,0.2265625,74.918281685344
251,0,0.375,1135.7719638404
241,0,0.390625,748.428211159058
152,0,0.234375,58.4869850984108
141,0,0.265625,91.1300325275133
252,0,0.3046875,1697.28755363328
241,0,0.3828125,674.869195975421
152,0,0.3671875,95.837767816167
141,0,0.3515625,35.4017171479826
142,0,0.46875,47.2534459655976
253,0,0.359375,2340.22454838329
241,0,0.390625,684.36346422943
152,0,0.1796875,109.120924230487
251,0,0.265625,1281.34403672913
241,0,0.3984375,1171.57727063694
152,0,0.2265625,76.6580830688557
251,0,0.4609375,1322.21862944998
153,0,0.2734375,69.2794103808939
141,99,NaN,89.742424830405
252,69,NaN,1897.49682781193
241,0,0.328125,1279.11147456865
242,0,0.375,728.574641341262
153,0,0.3046875,49.819303040883
141,0,0.3125,53.2765226183232
142,0,0.2578125,55.3686536956014
253,0,0.2890625,1755.69393476046
241,0,0.375,993.085690552463
242,0,0.3203125,886.631045849992
153,0,0.2265625,75.5891449247471
141,0,0.3359375,53.1476605925958
142,0,0.328125,86.0220170131963
253,0,0.28125,2512.95426215657
151,0,0.3046875,33.5683954206814
141,60,NaN,95.7325023275539
142,0,0.3046875,49.0797310022054
253,0,0.2109375,2610.40820322505
151,0,0.421875,91.4530036317489
141,0,0.2109375,40.0288760142026
252,0,0.28125,2132.69855025423
241,60,NaN,709.856109383458
242,0,0.3828125,1081.93777465409
153,0,0.1796875,62.5135692003473
251,0,0.2109375,1071.55005916576
153,0,0.28125,44.9151157367868
141,0,0.3203125,46.4295624105526
252,0,0.21875,1700.69591770625
241,0,0.3203125,1093.01039115977
152,0,0.2578125,56.0907279141183
141,0,0.3203125,44.2836543532373
142,0,0.375,48.649287950482
253,0,0.375,1785.57044533296
151,0,0.28125,35.7926575868127
253,0,0.2578125,1660.84000579377
241,0,0.3984375,1490.8114772223
242,0,0.3671875,805.994754826482
153,0,0.2734375,72.766310658576
141,0,0.2109375,59.8373204632708
252,0,0.296875,1608.73526511874
241,0,0.3046875,1230.96096825948
242,0,0.5078125,940.60390298432
153,0,0.34375,52.9057145098721
141,0,0.1640625,33.7717391359908
142,0,0.1953125,46.3895381479329
253,0,0.203125,2667.2592081296
241,99,NaN,810.842910417565
152,0,0.3828125,34.4065202857156
141,0,0.34375,61.0696738524488
252,0,0.2109375,2028.34336579255
241,0,0.2734375,635.598188461205
242,0,0.2265625,888.838195040261
153,0,0.1953125,49.6115516818587
251,0,0.2109375,1330.69918412789
153,0,0.2109375,47.0077647972275
141,0,0.296875,51.0986700162066
142,0,0.9140625,86.8546236662735
253,0,0.203125,1747.77693265012
241,0,0.2734375,907.207094478749
152,0,0.3203125,50.6546140754579
141,99,NaN,51.983751170781
252,0,0.3125,1321.33037198231
241,0,0.390625,1139.11311051863
152,0,0.375,66.7382111387681
141,0,0.265625,40.3762857805547
142,99,NaN,59.9252632964016
253,0,0.265625,1475.47468835592
241,0,0.6015625,837.770105719769
242,69,NaN,618.332547234135
153,0,0.375,35.880687320886
251,0,0.3125,620.079373710198
153,0,0.4921875,105.275002377781
141,0,0.3203125,41.1475343686308
252,0,0.2265625,1875.69181791299
241,0,0.375,964.613706452892
152,0,0.2734375,62.6053400891428
141,0,0.265625,59.6328936999877
142,0,0.328125,59.5956791654424
253,0,0.3671875,1887.42293110135
241,0,0.34375,1558.96250407739
152,0,0.2578125,58.9137613339328
141,0,0.234375,78.4092833003729
142,0,0.1875,61.2186486869861
253,0,0.296875,2343.76748943068
241,0,0.2109375,1507.97080011267
152,0,0.296875,37.0253117520364
251,0,0.1875,1656.64270225219
241,0,0.2109375,1057.34367066985
242,0,0.40625,348.960469314985
153,0,0.2265625,44.2193315308438
141,0,0.15625,63.2893082916897
252,0,0.40625,1604.63838183092
241,0,0.3828125,1092.39763596268
152,0,0.2734375,52.9263224706639
251,0,0.328125,681.922822947302
153,99,NaN,42.431117264767
141,0,0.140625,77.1234678578436
142,0,0.2890625,46.1997880155219
253,0,0.203125,1943.86113614664
151,0,0.296875,50.1506157349814
253,0,0.1875,1548.86389573933
241,0,0.234375,1153.21762031289
242,0,0.3984375,1036.30209457944
