trigger,category,rt,amplitude
141,0,0.5859375,3948.34445412731
252,0,0.40625,144.600902845298
241,0,0.34375,114.429113675161
242,0,0.390625,112.929489385503
153,50,NaN,631.543304381424
251,0,0.3671875,97.8524716004705
241,0,0.375,95.4632591908202
242,0,0.5078125,132.449517623594
153,0,0.5859375,5004.08256460427
141,0,0.6171875,4689.12490731776
142,0,0.6015625,3120.05130541881
253,0,0.4609375,125.137428724139
151,0,0.6875,4130.41605426632
141,0,0.5546875,1682.61054130875
142,0,0.65625,1342.78757593184
253,0,0.25,135.488959443947
241,0,0.34375,76.262841754617
152,0,0.609375,2334.85166082739
251,0,0.453125,89.9449133754661
153,0,0.515625,2086.1774234701
141,99,NaN,1949.94264768677
142,0,0.6328125,2012.01120984653
253,0,0.3359375,132.598222886629
241,0,0.53125,89.1136214004914
242,0,0.5078125,108.812094392642
153,0,0.46875,2297.5792978136
251,0,0.375,79.4076981479016
153,0,0.625,4341.67279523906
141,0,0.6953125,4098.75894751231
252,0,0.2734375,76.541392553267
151,0,0.5390625,2155.22577328094
141,0,0.515625,1918.78738917772
142,0,0.6484375,1429.80294086409
253,0,0.265625,119.413816313758
241,0,0.34375,111.399296007954
242,0,0.4296875,126.70857387407
153,0,0.6640625,2652.64564556127
251,0,0.5078125,122.47788962169
241,0,0.546875,128.475907419039
152,0,0.5546875,2452.72172894057
141,0,0.5234375,2424.24058746439
142,0,0.6953125,2251.43308035553
253,0,0.4140625,75.6490670314946
241,0,0.578125,96.0154819354436
242,0,0.609375,76.461683128591
153,0,0.6015625,3662.4097533307
141,0,0.5234375,3690.70414603603
252,0,0.3671875,75.3128266873451
241,0,0.5625,115.585765918706
152,0,0.46875,4090.98247824395
141,0,0.5078125,2064.04456980819
252,0,0.3125,77.6488798886812
241,0,0.28125,74.2338469940565
152,0,0.5,2500.55454329761
251,0,0.328125,131.013870245768
241,0,0.390625,80.036784615479
152,0,0.4921875,3456.84560719014
141,0,0.5,3381.43463198167
142,0,0.7734375,3000.92631705181
253,0,0.28125,85.1826927429465
151,0,0.59375,2325.98990868487
253,0,0.3515625,105.142588572658
241,0,0.6015625,108.902399182766
152,0,0.4453125,3442.50986562702
251,0,0.40625,114.599962051879
241,0,0.6171875,101.426467454148
242,91,NaN,122.685695245536
153,0,0.53125,2957.12829392876
141,69,NaN,2640.7355513671
252,0,0.3203125,158.252035181851
151,0,0.5625,3126.14621723205
141,0,0.578125,2835.33457586884
252,0,0.390625,68.0593255852392
151,0,0.4609375,1762.64317725748
141,0,0.5546875,1864.20992427723
142,0,0.5078125,2854.54968279292
253,0,0.421875,114.776177606164
241,0,0.421875,135.728647534511
242,0,0.3671875,168.765062420364
153,0,0.578125,2324.39183262976
141,0,0.6015625,2415.27242234461
142,0,0.6328125,1495.6187529316
253,0,0.375,84.6317831222945
241,0,0.34375,126.67244589052
152,0,0.5,2920.14752670638
251,0,0.3515625,99.7722638835871
241,0,0.40625,86.9998052181226
242,0,0.3671875,121.346685813624
153,0,0.4375,2933.54213860556
251,0,0.3125,71.8217384172663
153,0,0.5546875,3058.66563322234
253,0,0.3359375,102.365632986203
241,0,0.3359375,104.281126069678
242,0,0.3515625,143.035742154888
153,0,0.53125,2104.40263516799
141,0,0.4453125,2674.77851715287
252,99,NaN,83.5571313776773
241,0,0.375,126.424005125673
242,0,0.6171875,105.617055110911
153,0,0.578125,3084.10002498197
141,91,NaN,4285.99311905704
252,0,0.3046875,130.295227969251
241,0,0.390625,92.2389727552229
152,0,0.5625,1677.58631490366
141,0,0.6875,1308.09589932314
252,0,0.296875,109.267816502128
151,0,0.625,1679.0103560705
141,0,0.625,2120.96907627782
252,0,0.2734375,123.700564351397
151,0,0.515625,2915.84305631555
141,0,0.6015625,2678.90113934863
142,0,0.6484375,1003.26972382602
253,0,0.3515625,93.779448508161
241,0,0.4375,189.642352470434
152,0,0.578125,1133.16517851496
141,0,0.5703125,1723.40758579869
142,0,0.671875,1145.68768110383
253,0,0.53125,106.709609047573
241,0,0.34375,132.174753367854
152,0,0.4765625,1664.98031070727
141,0,0.3984375,1568.47297043652
252,0,0.2734375,83.7800580116044
241,0,0.546875,90.937916770008
152,0,0.5234375,6630.58064253762
141,0,0.390625,7677.1965698855
252,0,0.296875,123.701773140553
241,0,0.3125,109.212420098715
242,0,0.46875,156.028121968798
153,0,0.59375,1651.48827589239
141,0,0.5546875,1541.98538727756
142,0,0.46875,1368.30872003553
253,0,0.28125,121.057796436392
241,0,0.328125,186.118037881847
242,0,0.328125,68.2348555498623
153,0,0.5390625,5166.054448076
141,0,0.4609375,3435.1826729376
142,0,0.46875,3973.33714857708
253,0,0.359375,168.85704022138
241,0,0.3671875,114.097069954337
242,0,0.4296875,146.407047335752
153,0,0.453125,1945.0484659769
251,0,0.3984375,85.0067961311585
241,0,0.4375,113.265361662123
242,0,0.4375,112.984425117181
153,0,0.546875,3437.88789135317
251,0,0.3515625,99.6383743398713
153,0,0.65625,1083.28376345049
253,99,NaN,81.4028330640741
153,0,0.6484375,1083.85162883583
253,0,0.2890625,109.364848619388
241,0,0.5,160.382686895839
152,0,0.6796875,4633.72148303393
141,0,0.546875,1389.44956371618
142,0,0.5546875,1950.57041126565
253,0,0.375,128.576668296448
241,0,0.265625,112.681811590051
152,0,0.578125,3320.85807596263
141,0,0.4921875,3523.78452408892
142,0,0.484375,2578.23786801202
253,0,0.28125,107.798010621553
241,0,0.546875,127.022755666444
242,0,0.5234375,103.902986143161
153,0,0.453125,1300.88590631561
251,0,0.375,90.981159064689
241,0,0.6015625,94.8694097717557
242,0,0.484375,118.751775831527
153,0,0.4375,3583.83445095051
141,0,0.46875,2400.60981225486
252,0,0.40625,98.6756699395912
241,0,0.4296875,87.1084235065927
152,0,0.4296875,2058.81463337579
251,0,0.3203125,120.991354681656
153,0,0.5390625,1083.0259342339
141,0,0.6484375,3126.67741425026
142,0,0.5546875,2623.3097309175
253,0,0.34375,148.348190123119
241,0,0.3828125,125.106991548339
242,0,0.453125,118.798661483097
153,0,0.671875,2082.03810472347
251,0,0.3359375,131.789208475414
241,0,0.375,123.783153589805
152,0,0.5078125,2582.11330535879
141,0,0.4609375,1448.48551393002
142,0,0.484375,1318.70288642152
253,0,0.296875,80.1531432340129
151,0,0.453125,2216.63186546389
253,0,0.265625,88.4559757767679
241,0,0.3515625,110.78136437314
152,0,0.578125,2915.91451399781
141,0,0.6640625,3133.83271706648
252,0,0.421875,90.4590604069999
241,0,0.5,93.9451466087502
152,0,0.4375,3353.02353453762
141,0,0.5390625,1487.90237189105
142,0,0.640625,531.241250167681
253,0,0.5234375,148.38477364462
151,0,0.5234375,1498.70781885173
141,0,0.5390625,1411.6337144417
142,0,0.5546875,1888.34758320203
253,0,0.4375,99.9299563652937
241,0,0.4921875,93.5519072818606
152,0,0.609375,1725.42546066376
141,0,0.4609375,1484.4720016903
142,0,0.546875,781.821267270989
253,0,0.421875,137.712160935149
241,0,0.53125,90.9137154480536
152,0,0.5234375,2086.49522203879
141,0,0.5234375,4397.67082356267
142,0,0.7265625,867.692242433066
253,0,0.4140625,114.92632674516
241,0,0.515625,104.55333595829
242,0,0.5546875,146.167189690902
153,0,0.4765625,1333.80449732244
251,0,0.4453125,98.936991329326
241,0,0.546875,87.7629864301112
152,0,0.5390625,2153.14281212047
141,0,0.53125,2014.95252202739
252,0,0.359375,137.448906556727
241,0,0.3671875,146.358943900878
152,0,0.53125,1558.62118597486
141,0,0.4140625,1729.71055693273
142,99,NaN,1083.7368257952
253,0,0.3515625,90.3020875117991
241,0,0.5390625,113.498806973732
152,0,0.6796875,4500.48253459453
141,0,0.5078125,1960.73716615944
252,0,0.359375,101.985746631467
241,0,0.3984375,107.419469157837
152,0,0.40625,2251.82006993676
141,0,0.5703125,1220.41089376595
252,0,0.34375,71.5078519834138
241,0,0.390625,87.5831688960748
152,0,0.4609375,2135.77462629678
251,0,0.453125,212.401376951259
241,0,0.59375,68.3389918396807
242,0,0.3828125,132.295340514337
153,0,0.609375,2108.59197577359
141,0,0.375,1827.77270181751
142,0,0.4375,2638.23481359343
253,60,NaN,115.373046981404
241,0,0.375,103.609707229032
242,0,0.40625,131.75983031278
153,0,0.484375,1158.33439526917
251,0,0.4921875,106.275848492481
241,99,NaN,102.267103837979
242,0,0.578125,102.738900316843
153,0,0.46875,1861.80714940344
141,0,0.578125,3291.95227267714
142,0,0.6328125,1890.18979138277
253,0,0.3203125,100.972198425661
241,0,0.484375,113.405974639666
152,0,0.5703125,1979.8883632029
141,0,0.515625,1044.21083741628
252,0,0.203125,99.6968635387154
241,0,0.4296875,149.81592121594
152,0,0.59375,1822.84903734851
251,0,0.34375,82.0967411659669
241,0,0.453125,102.353379660092
242,0,0.3359375,107.078466883178
153,0,0.4765625,1575.99800901663
251,0,0.3984375,109.386713855673
153,0,0.671875,4976.66950540475
141,0,0.6640625,1060.4681243196
142,0,0.625,949.18879871727
253,0,0.375,117.248936995759
241,0,0.34375,112.119831799974
152,0,0.609375,1344.12805262267
141,0,0.484375,1889.97711906481
252,0,0.4140625,106.902649303375
151,0,0.6328125,3749.89714476719
141,0,0.5234375,2651.43310722277
142,0,0.65625,1416.58023898737
253,0,0.359375,68.8232868858634
151,0,0.5859375,3290.79902791183
141,0,0.6953125,1418.02599595351
252,99,NaN,120.424076472868
241,91,NaN,180.575777992083
152,0,0.6640625,2945.94855540039
141,0,0.5546875,2345.6578686517
252,0,0.3515625,111.108422346875
241,0,0.3359375,116.740529030648
152,0,0.625,8661.1912528396
251,0,0.359375,130.655676561962
241,0,0.4140625,207.707794385565
152,99,NaN,1072.58790583771
251,0,0.453125,120.902258297234
241,0,0.296875,107.847502417975
242,0,0.5546875,135.060208576672
153,0,0.46875,6348.64080060388
141,0,0.46875,3191.92516451952
252,0,0.4296875,85.9888112862161
241,0,0.359375,135.606100423749
242,0,0.390625,102.58266549552
153,0,0.453125,1727.83422871828
141,0,0.3828125,1991.90167942324
142,0,0.6484375,2431.79345974502
253,0,0.328125,69.2585584808774
151,0,0.5078125,2746.90290304363
253,0,0.3125,144.176451447818
153,0,0.5703125,1432.06235314413
141,0,0.5625,1904.87489307982
142,0,0.625,1248.98988987984
253,0,0.328125,145.228683345209
241,0,0.21875,145.016200064209
152,0,0.453125,2933.286311069
251,0,0.3359375,95.6550994771947
241,0,0.3125,140.431538943682
152,0,0.4296875,3193.91389306061
141,0,0.59375,1160.34426438159
142,0,0.609375,1615.92408812035
253,0,0.296875,69.3812001164947
241,0,0.328125,97.4065448648289
242,0,0.4453125,116.67701221277
153,0,0.53125,3075.04765788342
141,0,0.4921875,1093.37105333149
142,0,0.5546875,4413.45321023921
253,0,0.4921875,49.3917622640492
151,0,0.59375,1654.94651668474
141,0,0.484375,1220.30451078041
252,0,0.5234375,91.8175124814148
241,0,0.40625,87.7351499127251
152,0,0.546875,9222.94892822103
251,99,NaN,106.464802800657
153,0,0.53125,1333.50054829962
141,0,0.6171875,1707.09270582544
142,0,0.625,739.087208159559
253,0,0.453125,100.786751133384
241,0,0.5234375,82.2736670241287
242,0,0.359375,113.82113202112
153,0,0.5078125,2902.52564357525
251,0,0.4609375,113.150287420935
241,0,0.4453125,80.0127085669025
242,0,0.4140625,111.109692174202
153,0,0.5390625,6580.75124076859
141,0,0.6640625,1527.2435049594
252,0,0.390625,66.2427050653068
151,0,0.671875,2534.72924178596
141,0,0.59375,1202.76545776519
252,0,0.4140625,86.172809963042
151,0,0.484375,3258.10146754314
141,0,0.6328125,2518.01813250846
142,0,0.4453125,2062.60546362668
253,0,0.328125,90.6798700427661
241,0,0.328125,72.7583722351255
152,0,0.4375,1402.14306633905
251,0,0.5,111.55765211183
241,0,0.4921875,100.909423564785
152,0,0.5078125,2713.68715864162
141,0,0.5546875,2248.17109974702
142,0,0.640625,3355.1220152071
253,60,NaN,127.049992137699
241,0,0.3671875,123.11974403674
242,0,0.5390625,106.956022992872
153,0,0.5859375,2158.54513843895
251,0,0.359375,89.4503234489672
241,0,0.3828125,85.7401596079159
152,99,NaN,2867.61725594534
141,0,0.609375,966.665457395401
142,0,0.484375,938.197191191554
