trigger,category,rt,amplitude
241,0,0.21875,47.4884187839646
242,60,NaN,73.7993124813502
153,0,0.46875,430.818022577365
141,50,NaN,80.8287802919615
142,50,NaN,34.1510184682039
253,0,0.3125,107.019150343024
241,0,0.8828125,50.6232056177099
242,60,NaN,32.7964619940184
153,69,NaN,103.03309656623
141,0,0.4296875,660.266861253324
142,0,1.0390625,86.242716532501
253,0,0.15625,96.1116176126652
241,60,NaN,25.9528547534211
152,0,0.453125,564.526478294315
141,50,NaN,52.2557254087532
142,69,NaN,45.7914685367555
253,0,0.421875,75.1894222886678
151,0,0.2578125,922.660450976165
141,99,NaN,112.123919772152
142,69,NaN,84.3897155768126
253,0,0.1015625,126.819482710437
241,0,0.609375,64.3787171270063
242,99,NaN,48.8831849937959
153,50,NaN,41.2306667270222
141,0,0.5546875,573.152138407145
142,69,NaN,99.5209744513192
253,60,NaN,33.6694816434041
151,0,1.03125,146.271727227895
253,0,0.2578125,27.9550617247064
153,50,NaN,113.782220222934
253,0,0.203125,55.3435843145919
153,0,0.078125,1397.51416908099
141,69,NaN,45.907616412933
252,0,0.328125,82.9815160978926
241,60,NaN,45.410657750853
242,0,0.1953125,62.3579735425581
153,99,NaN,188.7494778577
251,0,0.2578125,39.6263391544782
241,0,0.1640625,42.6648570719175
152,50,NaN,88.0708308758694
141,50,NaN,65.5115783159825
142,50,NaN,29.3658654959387
253,0,0.6640625,53.2196456569453
151,0,0.1640625,469.825648225634
141,60,NaN,144.41105845103
142,0,0.28125,117.078704715122
253,0,0.5703125,42.5973097691291
241,0,0.2578125,34.0475089221556
152,0,0.0546875,1411.99235491457
141,99,NaN,116.301666126051
142,50,NaN,34.0314989651831
253,0,0.5078125,32.7346182410804
151,0,0.546875,2276.31815870979
253,0,0.09375,35.8476021520584
241,0,0.1875,21.4824881197094
242,0,0.390625,29.474882978546
153,0,0.390625,851.914932056333
141,0,0.6328125,225.417339258992
142,99,NaN,101.259605379392
253,0,0.34375,22.9240261097736
241,0,0.4140625,30.2869140318344
242,0,0.140625,43.8835633507793
153,0,0.4765625,614.578578491768
251,60,NaN,15.3999492064051
153,0,0.2421875,448.45883612685
253,0,0.640625,47.6113204084354
153,0,1.0859375,278.494656997745
253,0,0.5234375,70.6715254884345
241,0,0.375,107.974456394933
242,0,0.1796875,103.133062289903
153,0,0.796875,245.972395124458
141,0,0.5,251.647099958249
252,0,0.21875,59.5272290217395
241,0,0.2734375,28.3553823251334
242,0,0.3984375,17.1693398853767
153,50,NaN,135.123998626296
141,50,NaN,34.8353383361555
252,0,0.4375,24.591831339313
241,99,NaN,22.2567489853444
152,99,NaN,213.440738317841
141,50,NaN,78.0347471126594
142,50,NaN,60.1062188742835
253,99,NaN,37.8936584419253
151,0,0.1015625,1404.4010281491
253,0,0.046875,76.5175273075765
241,0,0.1171875,54.7242083806955
152,50,NaN,56.378249277734
251,0,0.375,32.7047235288093
241,0,0.2890625,30.5244978713229
242,0,0.453125,21.3592258801264
153,0,0.53125,302.610644120359
141,50,NaN,21.6666559336963
142,0,0.40625,252.908377833589
253,60,NaN,37.4094931734784
241,0,0.390625,20.5182590536985
152,0,0.7265625,184.446318822947
251,0,0.578125,48.0213511309329
241,0,0.484375,34.263927796074
152,0,0.8125,214.691913993792
141,50,NaN,59.2987624195381
142,50,NaN,59.7616010963393
253,0,0.453125,43.0628176084734
241,0,0.2734375,55.7007754685841
242,0,0.625,41.6548800937083
153,0,1.125,406.302265231326
141,50,NaN,27.2560545186002
252,99,NaN,28.4171950345615
241,0,0.0625,54.8867372271875
242,99,NaN,33.589183575071
153,50,NaN,159.077330565122
141,0,0.4609375,174.140429751113
142,50,NaN,65.0224714978356
253,0,0.7421875,27.482100937376
151,0,1.0859375,209.383990830777
253,0,0.265625,42.6057605797258
153,50,NaN,99.3160801732569
141,69,NaN,772.551633199775
252,0,0.609375,62.0549786223859
241,0,0.28125,74.1146549083824
152,0,0.2578125,451.684984937587
251,0,0.390625,28.2489503068896
153,69,NaN,55.2350917304485
253,0,0.71875,37.2468899691545
241,0,0.1796875,38.8120160221931
152,50,NaN,71.8686897633841
141,50,NaN,56.3666409041911
252,0,0.4140625,33.1911370403926
151,69,NaN,236.979993715701
141,0,0.4921875,99.638443164435
252,0,0.1875,32.4326138614739
151,0,0.90625,242.656106470123
141,50,NaN,44.9790565324706
142,0,0.1484375,82.4149871610409
253,0,0.4609375,42.5962383551298
241,0,0.0703125,38.9875578137634
242,0,0.296875,57.6364999136858
153,0,0.9453125,246.571206071005
251,0,0.15625,82.2806506542341
153,0,0.7734375,535.92061481138
141,50,NaN,60.796256202054
142,0,0.8203125,429.849864753302
253,0,0.125,54.4941250900705
241,0,0.5078125,71.6310973668096
242,0,0.4140625,33.6020073580883
153,50,NaN,69.1548255760297
141,50,NaN,83.3130378714118
142,50,NaN,33.727564534444
253,99,NaN,19.2896956956552
241,0,0.8515625,59.1660490429448
242,0,0.3984375,53.0109751236393
153,50,NaN,115.328278532577
141,0,0.53125,135.240485100882
252,0,0.2890625,110.172623455061
241,99,NaN,17.206009781907
152,50,NaN,107.066983477256
141,50,NaN,65.4102374439794
252,0,0.3515625,37.6182570417951
241,0,0.1328125,29.0118777043075
242,0,0.0703125,45.2480605145471
153,50,NaN,67.9189318695516
251,60,NaN,13.9475738673279
153,0,0.78125,218.709495396601
141,50,NaN,52.8657163307782
142,0,0.5078125,78.859182183556
253,0,0.421875,34.1029725956398
151,0,0.6484375,174.259956095787
141,69,NaN,62.4704199988225
142,50,NaN,42.5333486471288
253,99,NaN,22.5332308931425
241,99,NaN,15.9783051064137
242,0,0.4765625,61.6579115851167
153,99,NaN,300.921109128205
141,50,NaN,51.3761954964221
252,60,NaN,41.8773740735253
241,0,0.21875,47.8458098235456
152,99,NaN,137.74461763973
251,0,0.125,43.8471269897146
241,60,NaN,66.73655901766
242,0,0.4296875,52.4873465184588
153,0,0.6328125,1165.84753759032
141,0,0.2890625,372.219282677469
142,0,0.078125,1643.0338655128
253,0,0.5390625,32.7672881283986
241,0,0.9609375,35.3321018350825
242,0,0.4453125,18.8084928708506
153,0,0.65625,2322.61080240139
251,60,NaN,43.0725774127895
153,0,0.703125,855.471697207873
253,0,0.421875,46.0558260932814
241,60,NaN,99.7396556043901
152,0,0.515625,480.063714059252
141,0,0.703125,243.410237552483
252,0,0.46875,44.1183402294697
241,0,0.3828125,67.7300601957368
152,0,0.375,1052.05853806339
141,0,0.8125,342.06111381986
142,0,0.09375,1252.68412479136
253,60,NaN,30.6035811951452
241,60,NaN,24.0547921622927
152,0,0.484375,491.255496722299
141,0,0.6796875,244.148617784037
252,0,0.390625,39.7499133331156
241,0,0.3359375,44.8068300271341
152,0,0.578125,585.835646549648
141,0,0.9375,1977.01304223348
252,0,0.2890625,40.6586883140377
241,0,0.3828125,26.6706212763437
152,0,0.546875,492.586281549
141,50,NaN,58.0511082145106
252,0,0.8203125,33.4560183893734
241,0,0.234375,53.2222787351906
152,0,0.3828125,285.187782087977
141,0,0.8359375,981.303643720628
252,0,0.359375,57.1714185766127
151,0,0.7109375,302.994801458904
253,0,0.171875,60.6588770068164
241,0,0.4140625,21.0100581052236
242,0,0.5625,29.9881611182015
153,0,0.484375,338.690859596438
141,0,0.8125,257.583947145097
142,0,1.3984375,174.979543065649
253,0,0.5859375,47.7690071856474
241,60,NaN,59.5875611529703
242,0,0.0625,72.0590390360039
153,0,0.7421875,637.610823828366
141,0,0.640625,264.175511625761
252,0,0.3984375,37.5343722087283
241,0,0.3515625,37.8521347399974
152,0,0.46875,292.591069462077
251,0,0.359375,31.9839721242449
241,0,0.4765625,93.3053405195362
242,0,0.03125,45.3108721261202
153,0,0.875,984.355311082222
141,0,0.1953125,442.120492385293
142,0,0.2421875,510.214518161965
253,60,NaN,64.164534983009
151,0,0.7734375,295.11751373606
141,0,1,145.793571260469
252,0,0.515625,53.588598406002
151,0,0.6171875,998.840421467061
141,69,NaN,832.353631420683
142,0,0.2109375,293.241723723684
253,0,0.390625,36.5553303912532
241,0,0.2109375,22.6723328234571
152,0,0.609375,313.283508175055
251,0,0.2265625,49.2731063386412
153,0,0.546875,233.617541257979
141,50,NaN,80.0633814632313
142,0,0.421875,784.87859155369
253,0,0.3046875,25.2714204985809
241,0,0.4453125,52.5118455966892
152,0,0.40625,2367.45978128394
251,0,0.203125,47.4563862018053
241,0,0.6484375,84.2729225751928
242,0,0.453125,25.3418066603452
153,0,0.46875,2343.80328307737
251,0,0.046875,37.780746546731
241,0,0.1328125,48.2589360635402
152,0,0.5703125,997.249187741666
141,0,0.546875,619.183048096003
142,0,0.75,433.102312951352
253,0,0.234375,89.6217738436764
151,0,0.5546875,144.273452788054
141,0,1.0078125,496.940064430808
252,0,0.3671875,66.3752805368494
241,0,0.8828125,34.5414612014974
242,0,0.5078125,22.0199129732026
153,0,0.59375,793.644214824345
141,69,NaN,903.461953922689
142,0,0.3125,374.757907729761
253,0,0.0078125,69.6543955319375
241,0,0.8359375,48.1573353247759
242,0,0.0546875,73.024496914645
153,0,0.3828125,4180.55999349866
251,0,0.5234375,19.8540318405999
153,0,0.453125,1314.3002006911
141,0,0.4140625,534.661197149688
252,0,0.375,42.7586248356411
241,0,0.0390625,85.1573204907749
152,50,NaN,65.0631162873076
141,0,0.609375,1511.31838622582
142,0,0.078125,426.39054523135
253,0,0.6015625,20.6138971819541
151,0,0.7421875,369.740881122303
253,0,0.046875,86.5345126743316
241,0,0.3203125,49.6628810595695
242,0,0.34375,59.8956570992806
153,0,0.5546875,941.887198030346
141,0,0.2578125,1003.05972645893
252,0,0.5546875,47.6282745067954
241,0,0.3203125,58.3399953769054
152,0,0.578125,281.99116851452
251,0,0.5546875,31.2433235073907
241,0,0.171875,46.1213698629266
242,0,0.4609375,51.9020007991771
153,0,0.6484375,286.511584710428
141,0,0.734375,217.627525820541
142,0,0.6484375,183.715659536311
253,0,0.4140625,113.928194688046
241,0,0.3203125,55.7091204600234
242,0,0.296875,65.1157851834874
153,0,0.6796875,1077.08313925769
251,0,0.3046875,26.8139785525661
241,0,0.3671875,31.8055381207396
242,60,NaN,30.7678437960523
153,0,0.4375,688.71445577161
141,0,0.140625,281.535045792595
142,0,0.828125,119.209821753097
253,0,0.1484375,44.2611744136758
241,0,0.3984375,54.1514979836388
242,0,0.265625,54.8149989788187
153,0,0.4453125,679.469278807852
251,0,0.0546875,73.1812131418487
153,0,0.484375,408.872360769815
141,0,0.8203125,690.794171943501
252,0,0.171875,50.4350127017207
151,0,0.7265625,285.611363524369
141,0,0.703125,425.738316012859
142,0,0.8828125,215.993539909843
253,0,0.2109375,26.2889109416359
241,0,0.03125,48.9257486183518
152,0,0.5625,227.570345441402
251,99,NaN,13.4672580676481
241,0,0.3984375,37.0643624742986
242,60,NaN,31.2765604140252
153,0,0.796875,1404.21629105638
141,0,0.2265625,597.236001467688
142,99,NaN,109.306913844527
253,0,0.171875,35.0508627921348
151,0,0.7265625,258.641530579172
141,0,0.75,1186.24898563288
252,0,0.3125,65.139374011024
241,0,0.4296875,58.4865729051996
242,0,0.3828125,53.5149868353324
153,0,0.578125,1465.33360702773
141,69,NaN,271.497475573536
252,0,0.4453125,146.056996703226
241,0,0.2890625,54.2202789629199
152,0,0.578125,751.575607595558
141,0,0.9453125,1164.65855372777
252,99,NaN,56.1467571636627
241,0,0.2890625,49.9729689372577
242,0,0.09375,31.2377072103703
153,0,0.625,257.098816879198
141,0,0.53125,141.563026373256
142,0,0.4609375,260.138993084086
253,0,0.3125,41.8473693002643
151,0,0.4765625,371.117646253959
141,69,NaN,910.79455345893
142,0,0.2265625,260.032764640878
253,0,0.265625,41.7715856471135
151,0,0.8828125,731.204002476196
141,0,0.6015625,148.592157669381
142,0,0.5625,87.6492617801902
253,0,0.1796875,61.0392606907184
151,0,0.3984375,357.316889766118
253,0,0.5078125,85.5036160799925
241,0,0.3046875,74.7568853933852
242,0,0.40625,38.6997844906027
