trigger,category,rt,amplitude
251,0,0.4375,124.132762946235
241,0,0.421875,114.218191177105
152,0,0.5390625,3352.70531080509
251,0,0.359375,118.453468086085
241,0,0.40625,100.094418037877
152,0,0.5703125,3162.18699116885
141,0,0.546875,2556.50667562463
142,99,NaN,1810.89253785716
253,0,0.3046875,107.393480449834
241,0,0.53125,112.393558434152
242,0,0.453125,97.5845318405794
153,0,0.5234375,3229.58005640206
251,91,NaN,114.161942900707
241,0,0.3984375,80.2024508237972
242,0,0.4765625,79.6722117214045
153,0,0.5703125,3780.05130515734
141,0,0.5390625,3556.35897454609
252,0,0.3828125,110.58160915219
241,0,0.4140625,89.8256894388898
152,0,0.671875,2690.20758608433
141,0,0.515625,3201.52102308065
142,0,0.640625,2697.3428270242
253,0,0.453125,99.7713388451926
241,0,0.484375,89.5419701240515
242,0,0.515625,88.0616074947935
153,0,0.5625,3661.50306332918
141,0,0.4921875,3167.96285899083
142,0,0.5625,3206.35305752878
253,0,0.515625,85.0620678769267
241,0,0.484375,89.9294424971255
152,0,0.6328125,3444.05750741716
251,0,0.4921875,100.71671955312
153,0,0.5390625,3379.62070981732
141,0,0.6328125,3243.22375700998
142,0,0.78125,2688.48502053798
253,0,0.46875,88.1449175014874
151,0,0.5078125,2660.04511855929
141,0,0.609375,2749.04539076366
252,0,0.4921875,133.969389352736
151,0,0.578125,2814.59931226758
141,0,0.875,2379.08755810198
142,99,NaN,2591.17600791659
253,0,0.4453125,102.092930779704
151,0,0.546875,2823.69999593857
253,0,0.484375,88.5936733261784
241,0,0.3046875,44.2885832175317
152,0,0.6328125,3343.39437310541
251,0,0.4375,75.4389687180548
153,0,0.546875,3456.79154405291
253,0,0.546875,90.4130910297695
241,0,0.625,92.3604078892836
242,0,0.6484375,63.268940786974
153,0,0.6015625,4165.589573565
251,0,0.4296875,80.5712297582255
241,99,NaN,81.7177087650023
242,0,0.6328125,86.377916937895
153,0,0.4765625,3903.4184987956
141,0,0.6328125,3310.70972125409
252,0,0.4609375,90.587392718202
241,0,0.515625,74.8905232715424
242,0,0.5,80.8088777979395
153,0,0.5078125,4553.2844076369
141,0,0.5703125,3570.80770651231
142,0,0.5703125,2905.37417637849
253,0,0.5078125,94.5591467868627
241,0,0.5625,69.4678662918534
152,0,0.59375,3220.14573381008
141,0,0.625,2738.98437379052
252,0,0.4375,85.5597248270623
241,0,0.4296875,73.5141463405579
152,0,0.5234375,3247.86382884278
141,0,0.640625,3015.1848235365
142,0,0.65625,2727.04915420006
253,0,0.5234375,77.9042555519368
151,0,0.5625,2716.05086697002
141,0,0.640625,2668.99747467207
142,0,0.609375,2413.8218970624
253,0,0.421875,92.4936212061685
241,0,0.4765625,76.1610123430042
152,0,0.5390625,3318.78306453779
251,0,0.5,92.1439079062555
153,0,0.484375,3031.30598769497
141,0,0.875,3376.39347039296
142,0,0.8125,2625.20456338047
253,0,0.4140625,83.3096466342724
241,0,0.4296875,70.8918487585204
242,0,0.4375,70.5036735710815
153,99,NaN,3511.10985157257
141,0,0.578125,3162.22900249368
252,0,0.3203125,77.2469054021897
241,99,NaN,87.9469506137124
242,0,0.6484375,55.831442292006
153,0,0.6484375,3840.26136054151
141,0,0.7109375,3148.18828068261
252,99,NaN,84.6326482856117
151,99,NaN,3059.38589548407
141,0,0.6328125,2958.91362724735
252,0,0.5,98.9158142089487
241,0,0.5859375,123.647803638946
152,69,NaN,2809.16188707965
141,0,0.5703125,2720.87076039482
252,0,0.3203125,72.080470322455
241,0,0.4296875,86.5970800630697
242,0,0.484375,77.5680090686624
153,0,0.53125,3774.61925682337
141,0,0.5390625,3477.57108119438
252,0,0.359375,96.4753119283477
241,0,0.4140625,84.788333404717
152,0,0.59375,3452.23911082135
251,0,0.4453125,96.7946281876077
241,0,0.515625,74.8709043705487
152,0,0.6953125,3486.99899664269
141,0,0.78125,3483.99234532277
252,0,0.4453125,64.2032231232709
151,0,0.6484375,3683.85096655329
141,0,0.640625,3116.92964393979
142,0,0.671875,2707.56009662137
253,0,0.390625,86.5478532124315
241,91,NaN,92.9606254382721
152,0,0.4921875,3493.06913938665
141,0,0.5390625,3059.35405754664
142,0,0.59375,2682.77584847758
253,0,0.4140625,85.9912472003486
241,60,NaN,49.383616531983
242,0,0.4921875,60.4043360730378
153,0,0.5703125,3611.52460539796
141,0,0.578125,3027.15309352448
142,0,0.5859375,2591.81546418794
253,0,0.5390625,98.8148457050382
241,0,0.4140625,103.878780692014
242,0,0.3515625,76.6805046821304
153,0,0.6328125,3638.09604744325
141,0,0.671875,2985.49850176431
142,0,0.5078125,2761.9973871073
253,0,0.3984375,81.2127325449294
151,0,0.5234375,3077.4732009001
253,0,0.46875,93.5738196877526
241,0,0.5234375,63.4430024801843
152,0,0.5546875,3546.25684465522
141,0,0.8515625,3498.10918260142
252,0,0.3828125,97.0928389980264
151,0,0.5703125,3096.70356256861
141,0,0.8359375,2518.31166624267
252,0,0.375,82.8951187893318
241,0,0.5703125,61.9113995352522
242,99,NaN,91.1554547815148
153,0,0.578125,3650.42097294343
251,0,0.4296875,85.9436888182949
241,0,0.53125,67.4057820058799
152,0,0.6328125,3392.49622011318
141,0,0.625,2919.79960330308
252,0,0.40625,78.905629122433
241,0,0.375,65.3480812064194
152,99,NaN,4013.13194856116
141,0,0.6328125,2418.54037008411
252,0,0.4375,84.1860449519605
241,0,0.5234375,53.2453929246997
152,0,0.671875,3515.05663322842
251,0,0.4921875,81.2225998472263
153,0,0.546875,3158.77261988611
141,0,0.71875,3115.71471573796
142,0,0.6953125,2229.17332158083
253,99,NaN,82.7958847073122
241,0,0.484375,82.7945350565784
152,0,0.5703125,2754.68566893077
141,0,0.4765625,2868.1199335422
142,0,0.5234375,3006.44580980481
253,0,0.4609375,100.527691510714
151,0,0.53125,3115.1281093905
141,0,0.5,2860.72492793528
142,0,0.5234375,2557.87308600186
253,0,0.484375,97.1925003514956
151,0,0.53125,3017.96248745057
253,0,0.4453125,72.1304085254488
241,0,0.4921875,61.9925635973833
242,0,0.5078125,67.6369381038687
153,0,0.65625,4088.48520319708
141,0,0.515625,2862.09838248051
252,99,NaN,88.8466212693217
151,0,0.65625,4503.14748262275
253,0,0.421875,105.990633275957
241,0,0.625,84.308247726191
242,0,0.375,61.2061428899297
153,0,0.5390625,4089.87466300685
141,0,0.546875,3264.94139149916
142,0,0.640625,3249.14265636287
253,0,0.390625,93.1336540524655
241,0,0.4609375,81.7447920927555
242,0,0.4609375,99.6035653449398
153,0,0.5234375,3805.85104703652
251,0,0.4296875,90.2261988310431
241,0,0.4140625,86.3839872871487
242,0,0.453125,82.0760792118344
153,0,0.53125,4200.89674554826
141,0,0.4921875,3683.34689628554
142,0,0.6015625,3132.54513752732
253,0,0.390625,98.4221705530629
241,91,NaN,106.994103923906
242,0,0.4296875,112.861607280373
153,0,0.4609375,3973.56466394816
141,0,0.5390625,3280.54989622036
252,0,0.4140625,107.07265226657
241,0,0.3984375,89.7871955360462
152,0,0.5,3488.13172273244
251,0,0.4921875,111.078456707124
153,0,0.609375,3298.24914761607
141,0,0.546875,3000.00337356899
252,0,0.453125,107.279756928423
151,0,0.515625,2870.84459524296
253,0,0.3984375,105.441577716803
241,0,0.4453125,72.2940393644368
242,0,0.4765625,55.980796024996
153,0,0.515625,3651.2170197025
141,0,0.5078125,3343.88922257738
252,0,0.4140625,92.4884493096901
241,0,0.5078125,64.587540123571
242,0,0.4609375,98.8825600856134
153,0,0.5859375,3514.137958841
251,0,0.4453125,91.8539214329569
241,0,0.5546875,69.5686661890312
242,0,0.4296875,74.4936745366235
153,0,0.5078125,3945.62158361676
141,0,0.4453125,3134.95540156824
142,0,0.4765625,2847.56835629768
253,0,0.4140625,113.24673615461
151,0,0.53125,3084.20045046666
141,0,0.5,2776.45575127197
252,0,0.3984375,79.7319204359291
151,0,0.5546875,3272.43839043612
141,0,0.625,2687.7976074107
142,0,0.6015625,2629.32020883155
253,0,0.375,111.545595648038
241,0,0.3984375,79.4217186300409
152,0,0.4453125,3003.99250545755
141,0,0.5703125,2950.37912255297
142,0,0.5625,2832.54523375192
253,0,0.4609375,110.701861382095
241,0,0.4140625,69.815413697071
242,0,0.4453125,101.432846377027
153,0,0.5234375,3377.18640776309
141,0,0.4765625,3588.20827298781
142,0,0.578125,3460.95326932684
253,0,0.375,100.844608379941
151,0,0.4921875,3279.75855484586
253,0,0.421875,58.7824304825913
241,0,0.5390625,85.9250052650554
242,0,0.484375,59.1174157468164
153,0,0.4375,4102.79237273702
141,0,0.5546875,2749.29920258055
142,0,0.4453125,2931.19928396187
253,0,0.453125,176.621973703154
241,0,0.4453125,69.8306154258488
152,0,0.546875,3618.07530546324
141,0,0.53125,2877.54069235443
252,0,0.390625,105.993916801856
241,0,0.4453125,74.3479390530758
242,0,0.4453125,65.9400849429534
153,0,0.4765625,4034.50882013252
141,99,NaN,2260.56679184101
252,0,0.40625,76.7437293464739
241,0,0.421875,69.9008487246349
152,0,0.4921875,3761.68292836455
141,0,0.53125,3327.92747636518
252,0,0.34375,93.7091772762858
241,0,0.390625,86.197920373984
152,0,0.5078125,3616.52039140144
251,0,0.421875,114.142837063572
241,0,0.375,78.5759438998672
242,0,0.3671875,66.0884822558231
153,0,0.4921875,4287.31240703738
251,0,0.375,62.5622577322242
241,0,0.3984375,59.3472002868944
242,0,0.453125,55.6870391115656
153,0,0.6015625,4260.41305208241
141,0,0.53125,3779.24507719997
142,0,0.578125,3101.39543540909
253,0,0.34375,86.8611719118879
151,0,0.515625,3108.52395106721
141,0,0.5390625,2646.15223637544
252,0,0.40625,80.9466432275861
241,0,0.578125,73.729192540739
242,0,0.5078125,72.3450902096532
153,0,0.546875,4046.6239344511
141,0,0.6171875,3873.15769733256
142,0,0.5625,2934.99751491019
253,0,0.34375,85.1640975548489
241,0,0.421875,68.1196571837043
152,0,0.5234375,3481.05420888486
141,0,0.53125,2995.99109901319
252,0,0.3515625,73.7769104536403
151,0,0.4609375,2977.76234560134
253,0,0.28125,83.3310596951599
241,0,0.5546875,92.5666803854446
152,0,0.4765625,3680.93211105623
141,0,0.5859375,2928.8460187293
142,0,0.578125,2773.03934527326
253,0,0.3984375,96.7215576349244
151,0,0.484375,3011.35880203371
253,0,0.40625,77.0429395030468
241,0,0.5234375,71.3021252840365
152,0,0.546875,3513.67899418992
141,0,0.5625,3036.28759849531
252,0,0.40625,95.235833183962
241,0,0.46875,71.049296680541
242,0,0.484375,88.1096291200083
153,0,0.578125,3699.82662958794
141,69,NaN,3223.7048721678
142,0,0.5859375,3000.64774671934
253,0,0.46875,87.0964897028181
241,0,0.421875,69.8625051315925
242,0,0.359375,71.2307989549764
153,0,0.53125,3515.51241673844
141,0,0.609375,2707.44014360671
252,0,0.390625,96.2643428631462
241,0,0.40625,77.923628329158
152,0,0.453125,3336.22846806308
251,0,0.3671875,111.26456551042
153,0,0.5546875,3165.14903824606
141,0,0.4453125,3093.06500749677
252,0,0.3984375,93.0656982007831
151,0,0.4140625,3326.18468100288
141,0,0.5078125,2979.34893019804
252,0,0.375,88.7049995721479
241,0,0.4296875,66.8543064123949
242,0,0.53125,75.6386206497336
153,0,0.5390625,3960.5125881145
251,0,0.4453125,86.7480473679266
153,0,0.5,3813.51656632517
141,0,0.703125,2910.91387394899
142,0,0.5546875,2373.58802299158
253,0,0.390625,95.6944713325218
241,0,0.421875,86.8155096200323
152,0,0.4296875,3564.35166654243
141,0,0.546875,3061.79496842386
142,0,0.6015625,3158.05623961222
253,0,0.3515625,73.7181564616695
241,0,0.4375,85.4851501793249
242,0,0.421875,92.202132240589
153,0,0.4375,3810.62957791707
141,0,0.5234375,3971.06914735111
252,0,0.3984375,74.4525855883924
151,0,0.4765625,3709.45370914024
141,0,0.6640625,2984.83644236638
142,0,0.640625,2552.38736570058
253,0,0.4296875,86.4705513602915
151,0,0.5234375,2933.17181209483
141,0,0.59375,2520.24871480565
252,0,0.453125,87.7984398289114
241,0,0.375,89.5890218605702
152,0,0.59375,3497.94960587857
251,0,0.4375,93.4917390071147
241,0,0.4296875,87.4215892366067
242,0,0.546875,44.138264099006
153,0,0.59375,4464.65204941154
251,0,0.40625,65.3801541539984
241,0,0.6484375,61.1901400128208
242,99,NaN,70.2975432035251
153,50,NaN,59.4045839570583
141,0,0.609375,4093.80236750691
