trigger,category,rt,amplitude
241,0,0.640625,415.386062626213
242,0,0.4375,731.353239924764
153,0,0.421875,186.563392811001
141,0,0.2578125,171.35003963922
252,0,0.546875,1145.81554704313
151,0,0.4140625,179.955259782485
141,0,0.3828125,149.145015303344
142,0,0.3671875,143.668763685826
253,0,0.359375,1047.93086485291
241,0,0.3828125,736.123385881827
242,0,0.4453125,832.224837162336
153,0,0.2109375,131.674457202139
251,0,0.578125,520.944416528355
241,0,0.6171875,466.363575036785
242,0,0.4296875,510.150588177835
153,0,0.3359375,171.117140500576
141,0,0.421875,116.58356820829
142,0,0.4609375,121.968479466834
253,99,NaN,167.45308268765
241,0,0.359375,534.603794363393
152,0,0.375,125.192763350781
141,0,0.421875,102.359206020347
252,0,0.375,985.98486764542
151,0,0.2578125,89.878817534031
253,99,NaN,368.51525740494
241,0,0.6171875,508.646773674148
152,0,0.4453125,124.264219156615
141,0,0.3828125,103.178662441077
252,0,0.5078125,1025.47381348009
241,0,0.5546875,1092.23051143266
242,0,0.4296875,965.376928259027
153,0,0.390625,142.352980683442
251,0,0.40625,712.083497841182
153,0,0.390625,150.385601954774
141,0,0.3125,116.635096577908
142,0,0.359375,123.426478501834
253,0,0.390625,1044.56307672116
151,0,0.3359375,133.763707617101
141,0,0.3203125,121.297333894195
252,0,0.3671875,979.790850492942
151,0,0.5234375,92.8264539979407
253,0,0.5234375,317.80240894349
241,0,0.5234375,489.365826712522
242,0,0.59375,817.724586418274
153,0,0.359375,116.003641051038
141,0,0.359375,165.10481930681
142,0,0.3125,120.745999530105
253,0,0.3203125,819.972320599573
241,0,0.53125,836.201543573923
242,0,0.5234375,532.639875725998
153,0,0.3359375,169.529345990496
141,0,0.328125,116.238355843573
142,0,0.4609375,149.855062448354
253,60,NaN,1094.96012131755
151,0,0.4296875,130.926970049684
253,0,0.3515625,607.555669889269
153,0,0.4453125,99.5760401492121
141,0,0.3359375,136.438011769724
252,0,0.4375,629.879828148373
151,0,0.375,101.100093713541
141,0,0.3125,123.321169342376
142,0,0.3671875,132.47166484379
253,99,NaN,190.842296025602
241,0,0.453125,691.307736360924
152,0,0.4296875,108.383101654493
141,0,0.2890625,106.915040957823
142,0,0.3203125,107.539890822334
253,0,0.5546875,1030.44306509602
241,0,0.421875,750.982884075261
242,0,0.546875,475.691382647212
153,0,0.3515625,132.542478494391
251,0,0.515625,529.178962662202
241,0,0.34375,579.84729543047
242,0,0.421875,1248.42183334999
153,0,0.3203125,171.548279769489
141,91,NaN,162.080885947339
142,0,0.3125,149.473644813689
253,0,0.46875,521.195001000163
241,0,0.46875,692.291947080565
152,0,0.5234375,136.307536950382
251,0,0.40625,771.356127271719
241,0,0.609375,563.956318546509
242,50,NaN,128.948097290572
153,0,0.421875,137.469428190604
141,0,0.34375,153.873901312965
252,0,0.4296875,990.062624244335
151,69,NaN,94.3890503805701
253,0,0.34375,985.009377748302
241,0,0.6796875,320.038448774036
242,0,0.59375,447.169912494189
153,0,0.4609375,146.478561005163
141,0,0.421875,108.256701602713
142,0,0.515625,104.272900681742
253,0,0.453125,948.839535626913
241,0,0.515625,734.8978306545
152,0,0.359375,119.132301128139
141,99,NaN,117.848227920283
252,0,0.5546875,824.569094661093
241,0,0.46875,706.479312667214
152,0,0.4140625,116.463572828956
141,0,0.28125,118.808619169305
252,0,0.4375,907.948003504705
151,0,0.3515625,124.934986941037
141,0,0.34375,106.601810438012
142,0,0.4453125,105.381616209691
253,0,0.34375,831.060820362618
241,0,0.375,570.647181067127
242,0,0.5703125,375.532884709029
153,0,0.421875,95.5681113203495
251,99,NaN,158.847010880326
241,0,0.3984375,613.23384167932
152,0,0.375,142.33044033325
141,0,0.328125,129.652196345979
252,0,0.453125,673.488691993419
241,0,0.40625,419.859458931799
242,0,0.453125,546.486167195519
153,99,NaN,140.930860236973
141,0,0.3515625,111.610699463861
142,0,0.390625,154.927524725927
253,0,0.4140625,692.185411383314
151,0,0.546875,150.268401235314
253,0,0.4140625,486.878141090092
241,0,0.515625,368.394854059107
242,0,0.5625,294.043308415806
153,0,0.375,132.597481643803
251,0,0.453125,235.340702281815
241,0,0.53125,293.395866541795
242,0,0.359375,299.370973774235
153,0,0.34375,78.70037448574
141,0,0.328125,109.626638918228
142,60,NaN,107.606732085515
253,0,0.3984375,497.088949601416
151,0,0.328125,107.652861511969
141,0,0.3125,86.1677042545784
142,0,0.28125,103.366051842276
253,0,0.3984375,399.182273756348
241,0,0.390625,604.911571635883
242,0,0.4140625,379.491313432522
153,0,0.3046875,138.9270876193
251,0,0.390625,207.979961563674
153,0,0.328125,70.0568614012192
253,0,0.453125,316.663424220915
153,0,0.296875,86.2272095739795
141,0,0.265625,79.7909942161324
252,0,0.3671875,508.048355111575
241,0,0.4921875,352.160489535464
242,0,0.671875,391.540239301678
153,0,0.2734375,104.453303012635
141,0,0.2578125,88.4328312592
142,0,0.28125,79.2438221262814
253,0,0.3671875,449.492475587398
241,0,0.375,424.95021359793
152,0,0.34375,93.0197516869131
141,0,0.2265625,77.2034651325194
142,0,0.390625,95.8357322864652
253,0,0.3203125,551.705458022913
241,0,0.4765625,583.59997303918
152,0,0.2890625,99.5532927598501
141,0,0.171875,72.6185898543941
252,99,NaN,566.193638113573
151,0,0.5078125,132.065963303858
253,0,0.6953125,470.419418556535
241,0,0.6015625,421.977156134742
152,0,0.2578125,106.904246716083
251,0,0.5078125,478.50374998535
153,0,0.34375,92.4477510569324
253,0,0.3515625,426.165268013915
241,0,0.5546875,429.039977511177
242,0,0.3671875,225.638027286223
153,0,0.34375,113.182732557002
141,0,0.40625,72.492559733361
252,0,0.421875,306.4587375922
241,0,0.5,232.406225695082
242,0,0.5,309.247294725121
153,0,0.3515625,94.3834372736652
141,0,0.4140625,98.8817673652701
142,0,0.4765625,102.186502977941
253,0,0.5625,520.992000753718
241,50,NaN,56.4642290712969
152,0,0.34375,114.525455001434
141,0,0.3203125,61.1754518133722
252,0,0.40625,1172.80719998493
241,0,0.515625,313.341997640213
152,0,0.3125,112.344850640335
141,0,0.25,86.9826173216079
142,0,0.3828125,111.182210189586
253,0,0.375,612.012268350567
151,0,0.3515625,117.683581623156
141,0,0.3203125,100.936059061571
252,0,0.46875,553.463679225162
241,0,0.3984375,448.2495875612
152,0,0.3359375,112.506389660334
141,0,0.359375,77.6990367319828
142,0,0.4609375,102.085362218757
253,0,0.328125,614.654445149866
241,0,0.4765625,225.191554765067
242,0,0.59375,387.190015124104
153,0,0.265625,95.2786830406788
141,0,0.1875,72.5968899103745
252,0,0.421875,674.300470476261
241,0,0.4140625,301.227838462137
242,0,0.4140625,459.307344206047
153,0,0.328125,109.584727635797
141,0,0.2734375,95.1026264682325
142,99,NaN,99.9368975716413
253,0,0.421875,507.5969064519
241,0,0.3125,496.542489131447
152,0,0.3515625,114.511927887388
141,0,0.453125,74.8660438755337
142,0,0.5078125,52.8688320112772
253,0,0.4296875,750.40041171905
241,0,0.3203125,530.095177250618
152,0,0.2265625,113.230637466607
251,0,0.5,604.61299821879
153,0,0.40625,94.5947096486934
141,0,0.4765625,81.3405966701883
252,0,0.3671875,704.439676698483
241,99,NaN,140.858570011503
152,0,0.2578125,84.3622658524413
141,0,0.2734375,64.1799981073989
142,0,0.34375,61.1973418596293
253,0,0.4140625,694.982108800863
151,0,0.4453125,124.385136577571
253,0,0.4609375,482.067895661159
241,0,0.359375,443.109371190621
242,0,0.5390625,464.568519453477
153,0,0.171875,73.5729396679754
141,0,0.296875,99.001636496377
142,0,0.4765625,125.293984614701
253,0,0.53125,710.81339823286
151,0,0.5234375,95.2985872215915
141,0,0.375,100.038796315647
252,0,0.4375,580.544848824259
241,0,0.4296875,397.632517524846
152,0,0.3671875,92.2243999451216
141,0,0.2421875,80.1009376007661
252,0,0.3671875,596.200357202169
241,0,0.4140625,323.550209736332
242,0,0.4921875,367.098434781266
153,0,0.4609375,99.9802906686495
141,0,0.2265625,68.3495751506597
142,0,0.4375,110.466867271525
253,0,0.40625,671.796106088588
241,0,0.4609375,455.472662425394
242,0,0.4375,233.42818948025
153,0,0.2890625,119.291258897202
141,0,0.203125,73.5045056149199
252,0,0.5546875,485.790476466502
241,0,0.3515625,369.597159496756
242,99,NaN,327.571120322686
153,0,0.3671875,97.5479166194069
141,0,0.234375,67.4646959485366
252,0,0.421875,582.130562131528
241,0,0.296875,509.549255261224
152,0,0.40625,86.6561523423188
251,0,0.453125,330.318388013117
153,0,0.390625,106.766875550774
141,0,0.328125,91.8079354797524
252,0,0.359375,584.163793581223
241,0,0.3046875,535.771715725279
242,0,0.484375,335.295158147686
153,0,0.3203125,93.3069358113787
141,0,0.234375,63.5138338432061
252,0,0.4921875,510.641034964554
241,0,0.5,484.995345701311
152,0,0.3828125,108.176255758071
141,0,0.40625,70.9396202621845
142,0,0.359375,79.3728728320062
253,0,0.6484375,638.680199597906
151,0,0.390625,112.159470880559
141,0,0.359375,81.0910885539197
252,0,0.4609375,561.914199763914
151,0,0.3671875,107.768068250454
253,0,0.453125,502.684053197428
153,0,0.25,109.352607496603
141,0,0.3125,81.586447269467
252,99,NaN,439.083855010988
241,0,0.4921875,644.022206047008
242,0,0.5703125,445.04300511643
153,0,0.2890625,114.797028345796
141,0,0.484375,94.9588256390574
142,0,0.296875,96.4819150051255
253,0,0.4453125,528.10848476255
151,0,0.390625,97.691662526739
141,0,0.234375,74.565717526741
142,0,0.34375,68.4837514163488
253,0,0.2890625,755.487079085867
241,0,0.4375,348.827484218735
242,0,0.4921875,388.954261067343
153,0,0.2578125,103.331922463634
141,0,0.375,108.804887705348
142,0,0.34375,92.5012655801399
253,0,0.34375,552.364128336325
241,69,NaN,327.980264822904
242,0,0.515625,516.615494145752
153,0,0.234375,114.60379642617
251,0,0.5859375,434.691437768573
241,0,0.3984375,624.397079253084
242,0,0.4296875,828.516141128941
153,0,0.34375,121.848885209528
141,0,0.234375,109.855611012989
142,0,0.375,122.981057215818
253,0,0.5546875,629.526644030092
241,0,0.4140625,711.261928481907
152,0,0.421875,121.351082602103
141,0,0.171875,79.7015812568617
252,0,0.3828125,656.154524681769
241,0,0.4296875,806.041231333719
242,0,0.390625,836.301027229188
153,0,0.296875,104.678708618586
251,0,0.421875,764.6032884074
241,0,0.390625,905.848178739474
152,0,0.296875,154.494087498315
141,91,NaN,104.357090735158
142,0,0.53125,119.045097819719
253,0,0.453125,651.777973223743
151,0,0.390625,119.866559117275
253,0,0.421875,757.355740809571
241,0,0.4375,831.038178908925
152,0,0.421875,126.253005584922
141,0,0.3203125,84.8105223329506
142,0,0.3359375,79.1466849164935
253,0,0.65625,785.68918936965
241,0,0.546875,871.537593307242
152,0,0.234375,88.3297510212523
141,0,0.3671875,71.2980197087674
252,0,0.3828125,530.566467390074
241,0,0.375,778.435649219264
152,0,0.328125,89.5334550818528
141,0,0.421875,98.9533857455626
252,0,0.4375,704.99919917512
241,0,0.515625,824.894278308007
152,0,0.296875,66.1299197093349
251,0,0.328125,727.071480431163
241,0,0.5078125,872.6251162333
152,0,0.4609375,91.3109451732455
251,0,0.3515625,719.839937051809
241,0,0.5078125,772.759949232409
152,99,NaN,109.680518980027
251,0,0.65625,634.325345122699
241,0,0.5078125,661.224711010502
152,0,0.3203125,132.692997617252
141,0,0.46875,119.335784781515
252,0,0.5078125,631.436149463683
151,0,0.4453125,105.911806934649
141,0,0.34375,79.1817243940014
142,0,0.3515625,95.4028574053475
253,0,0.34375,604.016194191812
241,0,0.6640625,783.728923295179
242,0,0.5390625,824.145465336732
153,99,NaN,68.3368751051538
141,0,0.390625,77.8040785722395
252,0,0.5234375,727.185154144901
151,0,0.3828125,65.7302075252388
141,0,0.3125,82.651525790136
142,0,0.5234375,93.6157714784652
253,0,0.5,628.31830342694
241,0,0.578125,728.890302913901
242,0,0.546875,858.274848217813
