trigger,category,rt,amplitude
251,0,0.515625,1374.3041588384
151,0,0.359375,127.980172664276
141,0,0.4375,92.9510202094694
252,0,0.4921875,1297.30174688105
151,0,0.3359375,124.868698783857
141,0,0.328125,82.1661864310707
142,0,0.4375,68.6206975839668
253,0,0.5546875,1397.09915738367
241,0,0.4765625,1287.43302927906
242,0,0.46875,1564.93249635533
153,0,0.3671875,93.5931428417175
141,0,0.421875,69.0815194283442
142,0,0.40625,68.2039950721172
253,0,0.65625,1600.18299042446
151,0,0.3671875,73.0369351236537
253,0,0.46875,1555.25638571663
153,0,0.3828125,73.0461501308415
141,0,0.3515625,70.8891647734269
142,0,0.265625,62.5131668411355
253,0,0.5546875,1557.39891447494
241,0,0.53125,1374.02570345976
152,0,0.4140625,61.9082549544093
141,0,0.2734375,67.2478884995605
252,0,0.5234375,1463.40657573286
241,0,0.4765625,1404.69391264521
242,99,NaN,1435.355515954
153,0,0.3671875,112.579178542553
141,0,0.3125,70.036039775019
252,0,0.5703125,1513.82250355258
241,0,0.515625,1475.74792760783
152,0,0.359375,57.1269269408265
251,0,0.5234375,1457.39369909886
241,0,0.5078125,1318.48018581719
242,0,0.5703125,1450.10618199709
153,0,0.421875,138.133712848806
141,0,0.3671875,100.775180471289
252,0,0.53125,1465.89860579201
241,0,0.4921875,1370.1886518512
242,0,0.4765625,1269.81025991029
153,0,0.3828125,106.685508616151
141,0,0.2734375,72.7387855036986
252,0,0.5078125,1317.25903902813
241,0,0.5,1286.46581479449
242,0,0.4296875,1308.7637470224
153,0,0.359375,96.8176110724822
251,0,0.5546875,1294.17166672275
241,0,0.515625,1226.8900826549
242,99,NaN,1206.69510478518
153,0,0.3046875,102.937974372623
141,0,0.203125,74.8748819325013
252,0,0.4609375,1154.03590120024
151,0,0.3359375,83.6616472843302
141,0,0.2578125,71.8442675056949
252,0,0.4921875,1161.38035299146
241,99,NaN,1171.76706843881
152,0,0.328125,114.2608498068
141,0,0.1484375,65.6201672869033
142,0,0.21875,72.4928377492503
253,0,0.6484375,1209.05781108424
241,0,0.3984375,1237.22912552025
242,0,0.4296875,1171.87086912529
153,0,0.359375,79.7300486564607
251,0,0.546875,1124.7459928371
153,0,0.2421875,109.526208480904
141,0,0.359375,58.7210184723051
142,0,0.3515625,81.3275904022752
253,0,0.53125,1202.79229115588
151,0,0.3984375,60.3611760705106
141,0,0.421875,90.3179416286141
252,0,0.546875,1250.31409774271
241,0,0.390625,1119.56163838987
242,0,0.40625,1154.87464439687
153,0,0.25,99.5600513101874
141,0,0.2421875,118.051544567638
142,0,0.21875,51.6033815585577
253,0,0.5703125,1218.96280599767
241,0,0.4140625,1137.01139704733
242,0,0.4765625,1093.99418194598
153,0,0.3359375,90.2785861621672
251,0,0.578125,1140.36739369008
241,0,0.421875,1100.41237824932
152,0,0.3203125,127.505538982365
251,0,0.59375,1139.05642805943
241,0,0.453125,1148.40412802176
242,0,0.421875,1164.30963684918
153,0,0.3125,143.157354545005
251,0,0.5234375,1057.50851962834
241,0,0.4609375,986.587791895984
242,0,0.4921875,997.782147873234
153,0,0.2265625,139.270409941614
141,0,0.234375,105.1550784826
142,0,0.21875,94.5491511447527
253,0,0.6328125,1144.19683270166
241,0,0.3828125,1050.20069312465
242,0,0.4609375,1096.96649333554
153,0,0.3828125,133.853139621871
141,0,0.3046875,114.262542338216
142,0,0.2734375,87.1594116461676
253,0,0.53125,1181.74857605083
151,0,0.484375,120.765636439318
141,0,0.40625,62.0133120353854
252,0,0.6171875,1264.62409897627
241,0,0.40625,1152.89076003551
152,0,0.328125,125.029752780019
141,0,0.3203125,73.1131327138607
142,0,0.3515625,75.9444046118091
253,0,0.4921875,1152.45246671046
151,0,0.4140625,99.2298936285595
253,99,NaN,1188.05874789812
241,0,0.3984375,1133.96587315215
242,0,0.3671875,1254.5697425585
153,0,0.2109375,91.6345932878644
141,0,0.234375,136.360902935478
142,0,0.4921875,92.6777535713624
253,0,0.625,1149.66583890326
151,0,0.359375,125.586607204868
253,50,NaN,266.822470463317
153,0,0.3359375,74.5147475734673
141,0,0.359375,48.5084915539646
252,0,0.4609375,1160.76625025439
241,0,0.3359375,1255.42142566237
242,0,0.46875,1211.55620015162
153,0,0.2421875,98.6281162937507
251,99,NaN,1167.47381909648
153,0,0.390625,155.83346202302
141,0,0.4296875,42.79994274253
142,0,0.3984375,62.0947331267227
253,0,0.4375,1252.66518050823
241,0,0.390625,1184.13864632713
242,0,0.4140625,1153.78161166994
153,0,0.265625,98.8380401227288
251,0,0.5390625,1161.08877619324
153,0,0.359375,82.4354867508776
141,0,0.328125,156.37505788716
252,91,NaN,1141.20336626226
241,0,0.3515625,1171.61914763343
242,0,0.390625,1201.53896828127
153,0,0.3125,123.027141472786
141,0,0.4609375,66.865923206564
252,69,NaN,1271.76760810876
241,0,0.4140625,1215.89307233946
152,0,0.328125,92.0353374054089
141,0,0.3984375,96.0768666926517
252,0,0.4765625,1158.22512629858
241,69,NaN,1165.18477750027
242,0,0.4765625,1060.61247340991
153,0,0.3671875,95.7007800013281
141,0,0.2265625,63.0080569115117
252,0,0.53125,1206.22530209508
151,0,0.4296875,112.032438204239
141,0,0.3359375,57.9044754688169
142,0,0.2578125,82.3448776069514
253,0,0.421875,1184.03042936948
241,0,0.421875,1083.9071933847
152,0,0.3515625,74.5213392121516
141,99,NaN,167.941591568105
252,0,0.59375,1176.21520180198
151,0,0.421875,50.7045695545391
141,0,0.3984375,51.7195147192773
252,0,0.5234375,1101.85152191335
241,0,0.421875,1085.85783135128
152,0,0.484375,89.249404462879
251,0,0.5625,1127.69301498687
241,99,NaN,1122.09112786975
152,0,0.2421875,96.2583716989202
141,0,0.328125,142.304281429393
142,0,0.4453125,111.512754759961
253,0,0.5234375,1162.80133785698
151,0,0.3125,95.5405636151263
141,0,0.3515625,103.851026054588
142,0,0.34375,128.950734483421
253,0,0.484375,1294.23569758888
241,0,0.375,1139.84473720496
242,0,0.421875,1167.08515875309
153,0,0.2265625,156.349705957921
141,0,0.328125,148.326527442239
252,0,0.6015625,1158.04902855953
151,0,0.390625,128.506617665616
253,0,0.609375,1206.61623341784
241,0,0.4453125,1284.33700802796
152,0,0.2578125,144.641466099111
251,0,0.5,1203.62128471737
241,0,0.4296875,1147.81272057795
242,0,0.421875,1099.50776505867
153,0,0.2578125,141.802435333976
141,0,0.2109375,114.627987139886
142,0,0.28125,128.917583575637
253,0,0.46875,1111.67900065395
241,0,0.4453125,1103.99301534782
152,0,0.4296875,115.169544310854
141,0,0.2265625,90.9972519987839
252,0,0.6328125,1114.06707636176
241,0,0.390625,1142.40769874024
152,0,0.2734375,127.655262776008
141,0,0.1953125,94.9479277902177
252,0,0.53125,1155.76193087942
241,0,0.4453125,1090.44795888246
152,0,0.4296875,97.5877200868358
141,0,0.4296875,66.4231014835097
252,0,0.5859375,1113.00144801577
241,0,0.4140625,1011.44361090625
152,0,0.21875,120.292007157252
141,60,NaN,39.6233800327859
142,0,0.2109375,100.053879528516
253,0,0.546875,1240.52636059587
241,0,0.4375,1164.74825869267
152,0,0.4296875,91.7990543187506
251,0,0.53125,1177.68848258381
241,0,0.5,1080.78608845491
152,0,0.328125,96.3651961275381
141,0,0.453125,60.7655782407144
252,0,0.5859375,1316.14912699154
151,0,0.4453125,60.9729652758658
141,0,0.3828125,71.3748729339855
142,0,0.2734375,116.745668870189
253,0,0.5390625,1098.80939332245
241,0,0.421875,1070.20191623829
152,0,0.3671875,79.3871351954167
141,0,0.2109375,75.7857992223197
142,0,0.2734375,92.3495612624165
253,0,0.546875,1137.98708814198
241,0,0.359375,1066.03041869172
152,0,0.296875,51.7450726116777
251,0,0.6015625,1017.73201698962
241,0,0.53125,998.147864429892
242,0,0.453125,1009.21091930352
153,0,0.40625,145.980360604922
141,0,0.2421875,52.8977424681391
252,0,0.59375,1007.4024442106
151,0,0.359375,86.3197230214394
253,0,0.453125,1056.48037995693
241,0,0.3984375,942.358582526256
242,69,NaN,938.872955683354
153,99,NaN,67.7940627774184
141,0,0.2578125,86.791420743063
142,0,0.1953125,106.608894584791
253,0,0.5703125,882.607160703975
241,0,0.5,939.45002870348
152,0,0.3828125,114.669927336899
251,0,0.5546875,1011.54976083642
241,0,0.484375,1003.22389364231
242,0,0.46875,918.122275254986
153,0,0.359375,131.051724208803
141,0,0.2578125,111.026426577083
252,0,0.515625,1005.1167758779
241,0,0.515625,940.00293616713
242,0,0.453125,977.105304052954
153,0,0.28125,108.842013245614
251,99,NaN,1056.73845445762
153,0,0.375,83.2240014275521
253,0,0.46875,1087.88278629544
153,0,0.390625,103.866821768367
141,60,NaN,77.1682546749492
252,0,0.5703125,1035.26006003979
151,0,0.2734375,84.0851564768837
141,0,0.234375,66.5980823683654
142,99,NaN,55.0325793760763
253,0,0.5390625,1133.28125440707
241,0,0.421875,966.450530421464
152,0,0.2578125,80.1760727611263
141,0,0.265625,121.68141940182
252,0,0.46875,1171.80612196493
241,0,0.3984375,1042.87897606587
152,0,0.2578125,137.500446551347
251,0,0.6015625,1098.87926631929
241,0,0.5,1011.46116910889
242,0,0.4453125,974.064922726315
153,0,0.3125,132.353070082822
141,0,0.2421875,61.7471544770149
142,0,0.3203125,36.447150211213
253,0,0.4921875,1067.6101098508
241,0,0.453125,1060.40418614551
152,99,NaN,149.70376565452
141,0,0.3046875,50.1805701151295
142,0,0.3203125,77.8939124862863
253,0,0.5390625,1151.40955018869
241,0,0.4453125,1096.53931386757
152,0,0.328125,69.5847578416114
141,0,0.265625,126.10346699343
252,0,0.546875,1098.3061988993
241,0,0.484375,1059.4304130319
242,0,0.515625,1128.50432810081
153,0,0.265625,110.761477874654
141,0,0.2734375,125.401034799082
142,0,0.4921875,124.098123907989
253,0,0.5234375,1162.74708497731
151,0,0.3125,101.303234979989
253,0,0.5078125,952.637117074802
153,0,0.2421875,111.747803213364
141,0,0.34375,55.5712209290929
142,0,0.2578125,64.8974301055355
253,0,0.4140625,1028.8862658738
151,0,0.328125,95.2770761568437
141,0,0.46875,89.1718355413356
142,0,0.3046875,37.8003240282753
253,0,0.5078125,1094.43735586412
241,0,0.4296875,1014.8827183628
242,0,0.4375,1117.362559203
153,0,0.2734375,97.9319646994308
141,0,0.234375,124.012887595111
142,0,0.21875,101.971378969359
253,0,0.515625,1078.43475051245
241,0,0.3984375,1086.67981143838
242,0,0.453125,1026.33909721724
153,0,0.3671875,141.347699490567
141,0,0.2421875,104.52993447069
252,0,0.515625,1102.98539521831
241,99,NaN,1025.15729818311
242,0,0.3984375,1035.71100938369
153,0,0.2421875,81.7402013086511
141,0,0.21875,70.8983008068155
252,0,0.53125,1100.87301378464
151,0,0.421875,114.234833553038
253,0,0.4609375,1084.44014716706
241,0,0.5390625,1102.3729482364
152,0,0.265625,145.683206782957
141,0,0.375,139.525753781043
252,91,NaN,1149.39114183715
241,0,0.4609375,984.64678479378
152,0,0.421875,117.311085045363
251,0,0.5,1012.8535204185
153,0,0.265625,104.112193805728
141,0,0.3046875,81.2433407518825
252,0,0.4609375,1039.18406153818
241,0,0.4296875,947.665433406788
152,0,0.2578125,80.0635146909397
141,0,0.2421875,121.658131222595
252,99,NaN,1095.90954700389
241,0,0.4140625,1109.71600773141
242,0,0.4375,1007.49464081016
153,0,0.3671875,114.01791209893
141,0,0.2578125,151.249253995315
252,0,0.5078125,1046.8442901576
241,0,0.4921875,943.968413214043
242,0,0.4375,986.034678188946
153,99,NaN,159.045394247267
141,0,0.2265625,60.4039340992608
142,0,0.265625,48.1431766999379
253,0,0.4765625,1075.0407671232
151,0,0.4296875,115.743791375558
141,0,0.34375,53.734423068619
142,0,0.203125,101.604425223865
253,0,0.5078125,1107.32084771652
241,0,0.4296875,1136.39717157118
152,0,0.3046875,92.2292845104952
141,0,0.2421875,144.832275632975
142,0,0.296875,93.2514726223259
253,0,0.5078125,1169.72176962825
241,0,0.3671875,1250.8074681629
152,0,0.234375,124.26629172376
251,0,0.578125,1319.78836489676
241,0,0.3984375,1200.28945295175
242,0,0.3671875,1138.97578452393
153,0,0.28125,135.515894327464
141,0,0.2109375,71.1242661829095
252,0,0.53125,1170.3270617191
241,0,0.40625,1179.19676225502
152,0,0.3828125,82.1148125644678
251,0,0.546875,1126.95439880717
