trigger,category,rt,amplitude
251,99,NaN,1522.08604517093
241,91,NaN,663.935836258976
152,0,0.3828125,40.8831940482725
251,0,1.171875,889.869503425197
153,99,NaN,219.857505360624
141,0,0.703125,38.8269646746481
252,0,0.7734375,1646.92234073108
151,99,NaN,43.9728244894848
141,50,NaN,17.199281938151
252,99,NaN,1295.07829337101
151,0,0.5078125,43.2663663716105
141,0,0.6484375,94.7059195330826
252,0,0.59375,1230.97576520561
241,99,NaN,348.743338361142
242,99,NaN,636.956645101408
153,0,0.296875,69.5599138126686
141,0,0.5234375,125.615512549111
142,0,0.453125,98.0534790982906
253,0,0.6328125,694.887228733779
241,0,0.6484375,1228.85481174319
152,0,0.46875,38.5255952469207
141,0,0.7109375,68.6098934282227
252,0,0.625,1560.96469388073
241,0,0.5859375,1022.08052286059
242,0,0.4453125,956.128551514776
153,0,0.71875,107.063796249515
141,60,NaN,115.481604040531
142,91,NaN,60.6162849635126
253,50,NaN,128.322466223185
241,91,NaN,508.935945502336
152,0,0.8828125,28.4492140888908
141,59,NaN,16.7278719397451
252,0,0.6796875,873.180584769499
241,0,0.671875,716.72288516777
242,99,NaN,671.02650554405
153,0,0.78125,143.317722353003
141,0,0.6640625,163.279418732209
252,0,0.5703125,1346.53552029211
241,0,0.40625,1442.54480856554
152,0,0.78125,51.7252006665664
251,0,0.6015625,1187.97224781582
241,0,0.640625,940.815425899925
152,0,0.4453125,164.019480725666
251,99,NaN,570.624522714274
241,69,NaN,908.657515974824
242,0,0.734375,858.013233375165
153,0,0.8046875,91.1790779594258
251,0,0.9609375,1193.40282889362
241,91,NaN,584.197692547027
242,0,0.421875,482.170011048477
153,0,0.953125,65.3642831265052
141,0,0.8984375,142.193634230342
142,0,0.28125,123.91561473806
253,50,NaN,201.057154396326
241,0,0.5625,1143.9680835465
242,0,0.5078125,1101.38445728222
153,0,0.3828125,93.6098271176
141,0,0.7109375,126.75413175202
142,0,0.859375,121.538239406847
253,0,1.09375,970.989461164465
241,0,0.7734375,971.086635333996
242,0,0.4375,761.336152221947
153,0,0.640625,117.843273479219
141,0,0.640625,109.960525659485
142,0,0.6640625,81.2366540445884
253,0,0.625,963.754463839043
241,0,0.6796875,791.935245150004
152,0,0.90625,80.7431399187532
141,0,0.90625,89.4524972079131
252,0,0.7734375,470.046965908764
241,0,0.90625,697.987160176554
152,91,NaN,105.564799906687
141,0,0.734375,138.45227445662
252,0,0.6640625,1405.52817876694
151,0,0.859375,44.1646524296732
141,0,0.734375,41.3685514201753
252,0,0.7578125,940.016403656629
151,0,0.7109375,78.266581711347
141,0,0.6953125,110.902703018294
252,0,0.59375,800.535460746557
151,0,0.703125,59.0217302926357
253,0,0.3671875,1082.636687499
241,0,0.515625,914.068758811366
242,0,0.4765625,1186.98994523668
153,0,0.3671875,125.080030960184
141,0,0.5625,92.7989214157383
142,0,0.5078125,138.017789961571
253,0,0.71875,493.838641038529
241,0,0.703125,714.934118607863
242,0,0.8515625,850.983602752163
153,0,0.5234375,80.5707500953177
251,0,0.5859375,701.128979577404
153,99,NaN,53.2321519383091
141,99,NaN,46.1519119162805
252,0,0.4765625,1136.51668680597
241,0,0.5625,750.946378931363
242,0,0.6171875,692.339031946412
153,0,0.7890625,97.79401409599
141,0,0.5703125,121.923078114753
252,0,0.671875,619.2006838681
151,0,0.65625,63.6965890550919
141,0,0.484375,132.653620934367
142,0,0.953125,51.1206241417864
253,0,0.546875,704.303219037161
151,0,0.515625,105.548343527945
141,0,0.609375,119.223086455157
252,69,NaN,816.423465371019
241,0,0.6015625,729.77648928669
152,99,NaN,47.9160854996849
141,91,NaN,152.000311253262
252,50,NaN,158.847876891602
241,0,0.59375,933.569671229339
242,0,0.5390625,579.04764558195
153,0,0.4453125,103.74148576796
141,99,NaN,110.646179394951
142,99,NaN,89.7322254323301
253,0,0.484375,853.787278197737
241,0,0.828125,661.501788536926
152,60,NaN,91.3200171461016
251,0,0.5546875,793.044840326712
241,0,0.5859375,830.848693448768
152,0,0.5,100.883943058328
141,0,0.8203125,106.318066115874
252,0,0.625,643.258840589257
241,0,0.640625,643.246719885009
242,0,0.5859375,961.932483117709
153,0,0.4453125,104.191350398488
141,0,0.5390625,75.3658418112448
252,0,0.578125,493.07297408187
151,0,0.5625,49.4175910862538
141,0,0.796875,118.764884828107
142,0,0.5703125,70.743704030573
253,50,NaN,174.223385499512
151,0,0.7578125,55.6866075935915
141,0,0.5703125,115.122429425818
142,0,0.3125,73.0838563523038
253,59,NaN,188.284028577666
151,0,0.3671875,101.620804634234
141,0,0.5546875,136.00043242112
252,0,0.734375,929.997776584687
151,0,0.5,118.298829596464
253,0,0.390625,896.260583133221
241,0,0.5859375,1009.9330513893
242,0,0.6015625,1706.28518355726
153,0,0.515625,103.568120528579
251,0,0.4921875,896.425263830999
241,0,0.4765625,1318.64139166289
242,0,0.4609375,1340.77318108187
153,0,0.46875,81.0536213239649
141,0,0.5703125,69.1909721210808
252,0,0.6171875,916.588150308678
241,0,0.6640625,976.516148644962
242,0,0.546875,887.927536064108
153,0,0.546875,69.8307419898915
251,0,0.7578125,696.663169791754
241,0,0.8203125,738.792977824793
152,0,0.359375,88.9986947630937
141,0,0.5859375,75.806749659284
142,0,0.6171875,75.5542989877282
253,0,0.625,771.374935991121
241,0,0.6484375,689.969647510409
242,0,0.5625,675.224064183868
153,0,0.953125,31.5583784542414
141,0,0.4375,95.1897781781123
142,0,0.4921875,128.136820951539
253,50,NaN,188.533497799041
241,0,0.625,1502.84862092063
152,0,0.453125,115.368875925094
141,0,0.5703125,87.9369762652087
252,0,0.375,1035.8684820252
151,0,0.4140625,169.152885067584
141,0,0.5703125,110.312359822918
252,0,0.40625,1124.38895131114
241,0,0.5625,1168.01835734992
152,0,0.3984375,113.662297376347
141,0,0.640625,58.6459921833212
142,0,0.7421875,132.766328548004
253,0,0.6796875,1054.68462657786
241,0,0.640625,1792.2941454161
242,0,0.4765625,1657.63195338869
153,0,0.46875,41.2337474252604
251,0,0.5234375,2067.77750969161
241,0,0.53125,1708.59733110009
152,0,0.34375,100.389565666804
251,0,0.46875,1563.06114355099
153,0,0.4921875,104.013225653111
141,0,0.7890625,58.8988512839302
252,0,0.4453125,1312.46330677635
241,0,0.5,1424.05874237958
152,0,0.3515625,84.7447133290731
251,0,0.3828125,1104.17618096142
153,0,0.4609375,139.021616722502
141,0,0.9296875,167.619849325367
252,0,0.5078125,958.410579339827
241,0,0.4921875,881.37941303004
242,0,0.609375,968.239447222246
153,0,0.7421875,58.0267642653235
141,0,0.7421875,121.636925842487
142,0,0.6171875,77.8824289648936
253,0,0.6796875,931.573561221426
241,0,0.5859375,914.449555579358
242,0,1.125,260.143838589393
153,0,0.625,37.5153877853812
251,0,0.5625,803.291469510251
241,0,0.53125,812.371259425252
242,0,0.5078125,663.989667129845
153,0,0.375,64.5573675016832
141,0,0.53125,125.639347541552
252,99,NaN,760.260250434657
241,0,0.6484375,731.792801137432
152,0,0.765625,129.839013593925
251,0,0.671875,659.249637244895
241,0,0.59375,929.636311005663
152,0,0.4140625,119.806531223008
141,0,0.71875,148.799845615446
142,0,0.46875,83.2404017376939
253,99,NaN,814.754523486072
241,0,0.578125,804.674447436125
152,0,0.4296875,73.9859027169089
141,0,0.421875,55.5238928721793
142,0,0.4375,111.949371208359
253,0,0.5234375,1108.32639918838
241,0,0.40625,1492.33557262852
152,0,0.640625,112.404947769349
141,0,0.4296875,237.939282536353
142,0,0.796875,116.787486432265
253,99,NaN,280.041225408536
241,0,0.5703125,1385.31276752297
152,0,0.6875,103.102820629696
141,0,0.453125,96.3855440308275
252,0,0.421875,1412.9086452396
151,0,0.5390625,59.7832378784538
141,0,0.9375,72.5994523752662
252,0,0.6015625,874.760769345208
241,0,0.609375,928.666853896775
152,0,0.4765625,76.1322378298538
141,0,0.5390625,98.7720109611167
252,0,0.5234375,1131.66800626745
151,0,0.53125,84.9467401490756
253,0,0.6171875,1126.47872656294
153,0,0.53125,150.705702957791
141,0,0.71875,160.809618478076
252,0,0.609375,1381.9017850341
151,0,0.671875,110.746610077066
141,0,0.34375,114.636131984583
142,0,0.6796875,97.3079849613991
253,0,0.5703125,1003.38654562242
241,0,0.5703125,1013.19146558243
242,0,0.671875,723.157902493036
153,0,0.484375,50.0501727908962
141,0,0.6015625,84.7240835256868
252,0,0.6953125,1151.80827827739
241,0,0.5390625,1633.03339387995
152,0,0.8046875,103.143069269996
141,0,0.640625,61.3297917342917
142,0,0.546875,96.1095154165371
253,0,0.5546875,1086.18603983966
151,0,0.390625,135.164706379729
141,0,0.46875,83.1609004482635
252,0,0.5546875,1075.72749936054
241,0,0.5078125,864.801684655593
242,0,0.4140625,1048.31573802786
153,0,0.46875,61.18283832718
141,0,0.4375,87.0974318410549
252,0,0.4765625,1102.23363093571
241,0,0.4140625,1315.99727971841
242,0,0.4375,979.194174549936
153,0,0.6015625,90.8090368005
251,0,0.546875,948.740565752241
153,60,NaN,98.6417060443534
253,0,0.46875,838.887863314189
241,0,0.59375,720.714410443012
152,0,0.46875,70.0089654577792
251,0,0.421875,893.904072576635
241,0,0.578125,1030.82288301871
242,0,0.5078125,971.695718899066
153,0,0.6015625,104.088515523033
141,0,0.390625,70.9241437395049
142,0,0.453125,102.178825477254
253,0,0.5390625,897.57650979681
241,0,0.5234375,1458.8098413766
242,0,0.4765625,1559.44374665322
153,0,0.328125,160.409177854969
141,0,0.34375,72.987418794554
252,0,0.59375,1159.04820123745
241,0,0.53125,1207.51459301591
152,0,0.5703125,118.188803933181
141,0,0.5546875,100.593031635754
252,0,0.890625,1095.42211693454
241,0,0.609375,1458.34219702491
242,0,0.546875,1221.60365473081
153,0,0.515625,96.4615320767653
141,0,0.796875,73.5676509828542
142,0,0.65625,93.0904631408961
253,99,NaN,1095.97998032523
241,0,0.609375,1107.71412329084
242,0,0.6875,1495.90388154691
153,0,0.6015625,109.193770838169
251,0,0.3984375,1358.47547101322
153,0,0.484375,100.92298245262
141,0,0.40625,92.6866592678848
142,0,0.453125,80.6900720472774
253,0,0.546875,1281.38485551807
151,0,0.2265625,83.1959375201844
141,0,0.5703125,32.5040223128776
142,0,0.8046875,100.137151399651
253,0,0.5625,1212.68571427847
151,0,0.578125,122.610910066096
253,0,0.453125,1343.12807526793
241,0,0.546875,1348.06783116589
152,0,0.6015625,87.3626547694452
251,0,0.4453125,1042.34612096876
153,0,0.7265625,70.3426056503217
253,0,0.4765625,1354.14849028701
241,0,0.6640625,1036.39539385795
242,0,0.390625,1433.2486394067
153,0,0.4765625,130.603485383217
141,0,0.640625,99.5186003266115
142,0,0.5078125,164.070681466182
253,59,NaN,188.021976743897
241,0,0.484375,1084.07179667825
242,0,0.4375,1125.802390933
153,0,0.34375,145.460390044083
141,0,0.8515625,53.1300691724626
252,0,0.6015625,966.813603341958
241,0,0.6328125,998.970649516302
242,0,0.640625,849.812036062041
153,0,0.4609375,70.0755112400114
141,99,NaN,59.1555925883846
142,0,0.6484375,59.5899595903424
253,0,0.484375,1022.15161054391
241,0,0.78125,764.170199456225
152,0,0.46875,43.0616243711227
251,0,0.6484375,844.093890896291
153,0,0.2578125,58.8374083401566
141,0,0.4453125,54.9958421391196
142,0,0.7265625,48.3108286880802
253,0,0.546875,985.129785326039
241,0,0.453125,992.901944641472
242,0,0.546875,1027.19786090577
153,0,0.609375,77.8382791026402
141,0,0.34375,118.121214618511
142,0,0.59375,53.6971693778566
253,0,0.625,853.40855198907
151,0,0.453125,111.815034882123
253,0,0.5390625,1067.51357450109
241,0,0.625,926.766597743086
242,0,0.4609375,941.437198926772
153,0,0.375,49.0369276560522
251,0,0.4375,825.325674122967
241,0,0.546875,1117.53124190284
152,0,0.328125,38.1168338569774
141,0,0.3359375,42.3472463588547
142,0,0.484375,39.2075339273613
253,0,0.6484375,1094.89283723076
151,0,0.515625,87.3372965043957
141,0,0.953125,50.7305838600703
252,0,0.5234375,924.690644585939
151,0,0.6015625,53.3323593532186
