trigger,category,rt,amplitude
141,0,0.8125,326.481993185281
142,0,0.609375,2997.62245693635
253,0,0.21875,34.045856997509
241,0,0.28125,65.8288760742156
242,60,NaN,50.8595280011178
153,99,NaN,2123.21388806479
141,50,NaN,129.029203092591
142,50,NaN,66.4614222996854
253,0,0.390625,48.9453647461967
151,0,0.6796875,2827.85383654453
141,50,NaN,238.755544250704
252,99,NaN,66.1816927426221
151,0,0.6953125,2225.11596424811
253,60,NaN,58.0493250734822
241,0,0.2109375,72.9509801476632
242,60,NaN,36.6810356060224
153,0,0.6796875,2173.16438169968
141,69,NaN,103.065240613083
142,0,0.703125,2302.55266220258
253,0,0.328125,66.4147395246957
241,0,0.1640625,70.9037329996783
152,0,0.6796875,1892.3202672657
251,0,0.171875,48.4744105428339
153,0,0.515625,2145.11888316727
253,0,0.2421875,86.516166047469
241,0,0.0703125,37.4288877424957
242,60,NaN,61.0092074260871
153,69,NaN,1485.72251158383
251,60,NaN,61.6483512530245
241,99,NaN,38.4499536045686
152,0,0.6171875,1653.24115503485
141,0,0.4765625,462.662196365593
252,0,0.078125,47.9880099316348
241,0,0.1171875,57.1678680495591
242,0,0.09375,46.1804173385615
153,0,0.7265625,1488.47673555656
141,0,0.4765625,1500.08717831979
142,0,0.5703125,1238.83975119942
253,0,0.4140625,40.4100281870216
151,0,0.8984375,1184.51439006155
141,0,0.609375,1104.00131432577
252,60,NaN,26.465479682795
241,0,0.7109375,27.595456734595
242,0,0.1328125,57.5461242370218
153,0,0.6015625,1384.51195472919
141,99,NaN,319.180006464038
142,0,0.578125,1378.62467828003
253,0,0.484375,53.9671529455496
151,0,0.734375,1153.70649420767
141,99,NaN,504.160970276051
252,0,0.4453125,51.0357204101088
241,0,0.484375,108.29146501634
242,0,0.3515625,48.4728067400552
153,0,0.5234375,1464.03799588077
251,0,0.5078125,43.6497285322218
241,0,0.3203125,47.4427003692862
242,0,0.265625,40.3890730869874
153,69,NaN,1581.83439629955
141,50,NaN,237.231641898184
252,60,NaN,52.8141327161572
241,0,0.3984375,30.4755752345898
242,0,0.2421875,48.5630745439492
153,69,NaN,1522.25926242595
141,0,1.15625,1256.3370541754
142,0,0.828125,1394.27786626894
253,0,0.5703125,46.1315310343882
241,0,0.375,32.7028030556635
152,0,0.4296875,1353.28718439227
251,0,0.421875,69.6412224375899
241,0,0.46875,64.3861171281723
152,0,0.609375,1173.50040333349
141,69,NaN,1423.46618692825
252,0,0.8046875,46.7871320187226
151,69,NaN,1311.98143836604
141,0,0.953125,1365.69188066838
252,0,0.1640625,35.9373025466962
241,0,0.7421875,54.7306954705921
152,0,0.5859375,1402.13751452648
141,0,0.828125,797.801389246328
252,0,0.5390625,90.3150110201975
241,60,NaN,48.9417477021135
242,0,0.046875,22.4317964189189
153,0,0.7109375,1261.46715169872
251,0,0.3203125,23.8194785044045
153,69,NaN,1449.36941923562
141,0,0.9296875,1311.5509375031
252,0,0.375,78.5812153839898
151,0,0.5703125,1335.45860247227
141,0,0.5625,1323.86243029226
142,0,0.859375,1261.91636581758
253,0,0.234375,40.33712889479
241,60,NaN,53.3071350994111
152,0,0.5390625,1337.19971403518
141,0,0.3203125,1517.87558071352
252,60,NaN,48.662844432223
151,0,0.6328125,1507.36811339175
141,69,NaN,73.7297302699138
252,0,0.0859375,50.381813548978
241,0,0.1171875,36.5837406880774
152,0,0.5390625,1851.54726247452
141,69,NaN,1556.93130993286
252,60,NaN,63.6743513695052
241,0,0.0703125,85.4592399856823
152,0,0.703125,1504.17403448503
141,99,NaN,1328.92691711773
252,0,0.28125,62.1876508686719
241,60,NaN,63.3480665181174
242,0,0.328125,134.641753046277
153,0,0.53125,1367.80935378513
141,69,NaN,1378.32460109563
252,0,0.625,50.3764888174884
241,0,0.0625,32.6458645019464
242,0,0.3671875,63.1499601757635
153,0,0.6015625,1545.47623348788
141,0,0.625,641.356603159997
252,0,0.265625,42.5597896305808
241,0,0.109375,30.8426860693152
152,0,0.6328125,1270.46268770701
141,0,0.75,1403.23040163791
252,0,0.125,43.8407941964372
151,0,0.5703125,1248.49225610104
253,60,NaN,35.9589502444229
153,0,0.5546875,1239.8786506719
141,0,0.5078125,733.43825334881
252,0,0.125,58.8932514857859
241,60,NaN,42.8172627671583
152,0,0.453125,1126.28997053208
141,0,0.6484375,698.735593342373
142,0,0.578125,953.920256212358
253,0,0.328125,77.7344162391863
241,60,NaN,163.614193200361
152,0,0.4453125,1131.17100937742
141,69,NaN,1173.70571810934
142,0,0.7890625,954.29252605977
253,0,0.375,76.3310306734768
241,0,0.46875,64.1908228991496
242,0,0.0625,36.8361304877041
153,50,NaN,114.547663959706
141,50,NaN,82.4267817240113
252,99,NaN,83.5642099348516
241,0,0.40625,92.7264266261096
152,69,NaN,1053.33830046889
251,0,0.2265625,163.294468852469
241,0,0.3515625,32.3664704223683
242,0,0.4375,81.0121474511309
153,0,0.578125,1243.74469715833
141,0,0.921875,1220.15952667656
252,0,0.3359375,105.857683712179
241,0,0.2265625,87.3455179254968
152,99,NaN,1341.37409381575
141,0,0.625,1161.7798498186
142,0,0.578125,1142.25953381862
253,0,0.5703125,63.5183073875217
151,0,0.5546875,1082.68073846242
253,0,0.2421875,71.8482457779011
241,0,0.359375,94.1765544629929
242,99,NaN,41.6262510085388
153,0,0.7109375,1396.65236357458
141,0,0.8671875,1220.14170148568
252,0,0.25,95.8280832111135
241,0,0.40625,89.1555165308476
242,0,0.203125,47.9783643483161
153,0,0.7890625,1257.67910005503
141,0,0.6953125,1377.7071291274
252,0,0.296875,62.5974480283879
241,0,0.671875,46.4002168904786
152,0,0.609375,1081.53359260687
141,0,0.578125,446.047666156184
142,69,NaN,353.475533956404
253,0,0.2890625,30.3347447380544
151,0,0.9921875,1025.21573910955
141,0,0.3984375,729.163530034789
252,0,0.2265625,98.9179693686803
151,0,0.5625,1151.92957564711
141,0,0.53125,1079.91164265005
252,60,NaN,70.0291460806217
151,69,NaN,1115.19930874487
141,0,1.2109375,1017.4044496428
252,0,0.1015625,72.8595799341223
241,0,0.0390625,99.6751299201512
242,0,0.0859375,48.6134904382213
153,0,0.8125,1617.25260174612
251,0,0.046875,91.2407790808256
241,0,0.28125,62.7582620130841
152,0,0.46875,1543.56351333739
141,0,0.4453125,1351.02628829248
142,0,0.515625,1231.25848891374
253,0,0.3125,63.3979325563953
241,0,0.1953125,80.7033410816187
242,0,0.2890625,36.9816537297504
153,0,0.546875,1338.34001575833
141,0,0.546875,1282.17063034906
142,0,0.5546875,1117.54915680766
253,0,0.328125,67.6093204975384
241,0,0.3046875,48.2829258873016
152,0,0.609375,1150.94976497159
141,0,0.96875,1070.14954959963
252,0,0.34375,53.8547606588279
241,60,NaN,59.6897006696206
152,0,0.671875,1122.11770680665
141,50,NaN,111.816384899993
252,0,0.4765625,62.2555621470076
241,0,0.4609375,62.3271916844064
152,0,0.7109375,1303.33370831703
251,60,NaN,88.3768775452821
153,0,0.765625,1199.03620718815
141,0,0.5390625,1096.19573715776
252,0,0.328125,74.2171314755546
151,0,0.921875,1240.25228225969
141,0,0.6953125,1016.31900037722
142,0,0.4609375,1008.47337728293
253,0,0.0625,71.4936053049494
241,0,0.296875,54.3881872029715
242,0,0.390625,58.5479366606715
153,0,0.609375,1206.27236842349
251,0,0.140625,70.725926382215
153,0,0.5,1287.2171954496
141,0,0.6484375,1202.81842621117
252,0,0.5859375,91.3714359601588
241,0,0.5546875,52.6847753603209
242,60,NaN,43.2619902312593
153,0,0.5859375,1208.9318689382
141,0,0.78125,1425.19635916325
252,0,0.4921875,62.675218507362
241,0,0.3203125,43.8275365744326
242,0,0.171875,41.3319398270888
153,0,0.609375,1372.98386375087
141,0,0.7578125,1343.819173405
142,69,NaN,1111.77502553529
253,99,NaN,53.9127861645374
241,0,0.0546875,41.5040567611415
242,60,NaN,37.2401004510247
153,69,NaN,1178.81872281385
251,0,0.421875,55.6239427412423
241,0,0.453125,79.0415197555707
242,0,0.2734375,75.6418240765369
153,69,NaN,1315.35921029113
141,0,0.4296875,1113.31619215679
142,0,0.5546875,1186.03720377533
253,0,0.2265625,105.128787296611
151,0,0.578125,1323.23135925447
141,0,0.6875,1205.68996699155
252,0,0.1796875,53.618535038651
151,69,NaN,1210.72360258134
141,0,0.5546875,1179.21116345701
142,0,0.8515625,1030.04191084944
253,0,0.3203125,61.6385174679226
241,0,0.34375,51.876688150034
242,0,0.3828125,36.8491145113179
153,0,0.5078125,1303.34428705419
141,0,0.5703125,1312.73167846776
252,0,0.34375,79.2528931909555
241,60,NaN,77.6300247107099
242,0,0.125,37.4568840679568
153,0,0.5625,1554.03239756162
141,0,1.203125,1405.44790729203
142,0,0.4765625,890.609853413322
253,0,0.4921875,57.4994590003536
241,0,0.125,63.9780608520921
242,0,0.3203125,29.8166989396763
153,0,0.4921875,1483.74063322784
251,0,0.2890625,75.706949148703
241,0,0.375,70.7161666031699
152,0,0.59375,1388.08784162425
141,0,0.734375,1423.80351508134
142,0,0.484375,1323.90305280889
253,0,0.2578125,50.7007681164648
151,0,0.9296875,1382.94276329057
141,69,NaN,617.46590997823
252,0,0.3359375,38.3098958822541
241,0,0.2890625,57.3418646899985
152,0,0.484375,1335.994520104
251,60,NaN,33.4883409753647
241,0,0.40625,30.5381629468516
152,0,0.5390625,1292.17241574782
141,0,0.78125,1117.74532334074
142,0,0.984375,853.285368924266
253,0,0.5390625,49.4221644297138
241,0,0.3984375,36.5806626251848
152,99,NaN,1275.8357723659
251,60,NaN,55.3677262968261
241,0,0.4609375,58.3365563682102
152,0,0.6328125,1520.91820461035
141,69,NaN,764.046019427404
252,0,0.5234375,57.9701319068342
151,0,0.6171875,1150.39016503399
141,0,0.6796875,1241.7187956206
142,99,NaN,641.123570452743
253,0,0.4140625,70.4038340315007
241,0,0.1484375,56.3410175662812
152,0,0.609375,1311.15210261197
141,69,NaN,1155.33103583131
252,0,0.4453125,56.9275844244443
241,0,0.5,84.5130848649658
242,0,0.125,53.2490980378045
153,69,NaN,1298.09970941919
251,0,0.40625,46.0829266028402
241,0,0.203125,48.9972619726076
152,0,0.625,1213.31246355268
251,0,0.4609375,50.2599261207415
241,0,0.1328125,54.6915373873274
152,0,0.46875,1233.57575988992
141,0,0.9296875,871.601863719696
142,0,0.609375,1106.18709330917
253,60,NaN,31.1203943950571
241,0,0.2265625,53.174110157011
152,0,0.6640625,1281.61569920871
141,69,NaN,1177.37205697295
142,69,NaN,1348.53585913883
253,0,0.203125,65.6221537722241
151,0,0.5234375,1171.63923241253
141,0,0.6015625,995.334145743185
142,0,0.5703125,955.23737270668
253,0,0.53125,54.4887394889733
241,0,0.484375,45.2863500135659
242,0,0.1875,40.3164967236152
153,0,0.515625,1420.70207330174
251,0,0.09375,59.169868563313
241,0,0.328125,40.6528364991655
152,0,0.6953125,559.413101852743
141,0,0.53125,1444.57147891344
142,0,0.4765625,1556.2215699277
253,0,0.2734375,70.9815001018215
241,0,0.28125,24.0524455030271
152,0,0.453125,1614.44991302485
141,0,0.671875,1287.82974106553
142,69,NaN,1546.45526336525
253,0,0.28125,57.5961679836829
241,0,0.359375,105.262426351897
152,50,NaN,97.3923163110501
251,0,0.3125,55.9634964810486
241,0,0.3671875,61.4306848792046
242,0,0.234375,53.7847625887009
153,0,0.609375,2020.3127484669
141,0,0.75,1649.11202907522
252,0,0.15625,60.4582808756234
241,0,0.4140625,49.3768120596428
242,0,0.0390625,50.5440860763034
153,0,0.6953125,1556.96768370047
141,0,0.46875,1682.5801691259
252,60,NaN,86.3431201403021
241,99,NaN,62.4352078767841
152,0,0.546875,1511.40504947017
141,0,0.53125,1522.8959621553
142,0,0.4921875,1538.10003287257
253,0,0.4453125,67.3617604765754
151,0,0.609375,1452.72232982146
253,0,0.6640625,126.727529509096
153,0,0.8359375,1392.76542365713
141,0,0.5234375,1056.21312599217
252,0,0.125,82.0560334461232
241,0,0.3359375,108.642283596547
152,0,0.59375,1479.20281839912
141,50,NaN,81.124342906478
252,0,0.421875,61.8463486028798
241,0,0.4453125,44.2868465974306
242,0,0.046875,38.5304196369875
153,99,NaN,2159.39319009642
251,0,0.3125,44.5645619810001
