subjid,isExcluded_Rp,isExcluded_Ts,AN_val_meanRT_Rp,AN_inval_meanRT_Rp,AN_val_sdRT_Rp,AN_inval_sdRT_Rp,AN_val_nErrorTrials_Rp,AN_inval_nErrorTrials_Rp,AN_val_nFpTrials_Rp,AN_inval_nFpTrials_Rp,AN_val_nOl1Trials_Rp,AN_inval_nOl1Trials_Rp,AN_val_nOl2Trials_Rp,AN_inval_nOl2Trials_Rp,AN_val_nOmissionTrials_Rp,AN_inval_nOmissionTrials_Rp,AN_val_nHitTrials_Rp,AN_inval_nHitTrials_Rp,AN_val_nCleanTrials_Rp,AN_inval_nCleanTrials_Rp,AN_val_MeanMaxAmp_Rp,AN_inval_MeanMaxAmp_Rp,AN_val_SdMaxAmp_Rp,AN_inval_SdMaxAmp_Rp,HA_val_meanRT_Rp,HA_inval_meanRT_Rp,HA_val_sdRT_Rp,HA_inval_sdRT_Rp,HA_val_nErrorTrials_Rp,HA_inval_nErrorTrials_Rp,HA_val_nFpTrials_Rp,HA_inval_nFpTrials_Rp,HA_val_nOl1Trials_Rp,HA_inval_nOl1Trials_Rp,HA_val_nOl2Trials_Rp,HA_inval_nOl2Trials_Rp,HA_val_nOmissionTrials_Rp,HA_inval_nOmissionTrials_Rp,HA_val_nHitTrials_Rp,HA_inval_nHitTrials_Rp,HA_val_nCleanTrials_Rp,HA_inval_nCleanTrials_Rp,HA_val_MeanMaxAmp_Rp,HA_inval_MeanMaxAmp_Rp,HA_val_SdMaxAmp_Rp,HA_inval_SdMaxAmp_Rp
VP01,yes,yes,NaN,NaN,NaN,NaN,NaN,NaN,NaN,NaN,NaN,NaN,NaN,NaN,NaN,NaN,NaN,NaN,NaN,NaN,NaN,NaN,NaN,NaN,NaN,NaN,NaN,NaN,NaN,NaN,NaN,NaN,NaN,NaN,NaN,NaN,NaN,NaN,NaN,NaN,NaN,NaN,NaN,NaN,NaN,NaN
VP02,no,no,0.61436,0.68867,0.17598,0.11591,0,0,0,0,5,0,0,0,0,0,80,20,80,20,7640.6171,7889.97,2463.1961,1879.8521,0.62051,0.80703,0.15763,0.088972,0,0,0,0,5,1,0,0,0,0,80,20,80,20,651.6403,704.8364,126.2909,144.9376
VP03,yes,yes,NaN,NaN,NaN,NaN,NaN,NaN,NaN,NaN,NaN,NaN,NaN,NaN,NaN,NaN,NaN,NaN,NaN,NaN,NaN,NaN,NaN,NaN,NaN,NaN,NaN,NaN,NaN,NaN,NaN,NaN,NaN,NaN,NaN,NaN,NaN,NaN,NaN,NaN,NaN,NaN,NaN,NaN,NaN,NaN
VP04,no,no,0.77713,0.76649,0.31957,0.24047,4,1,1,0,5,0,0,0,1,1,74,18,76,19,1745.3474,2142.1485,922.6851,707.3883,0.71489,0.90664,0.21986,0.20433,3,0,0,0,1,0,1,1,0,0,77,20,77,20,353.7681,359.4755,109.9372,86.4639
VP05,no,yes,0.78344,0.75,0.13474,0.19539,55,15,0,0,0,0,0,0,0,0,25,5,25,5,3981.5202,3658.9039,1506.7412,1230.0107,0.43438,0.59844,0.18122,0.12507,60,15,0,0,1,0,0,0,0,0,20,5,20,5,92.6263,131.6088,34.3878,62.143
VP06,no,no,0.53607,0.62109,0.12817,0.17357,33,10,0,0,2,1,0,0,0,0,47,10,47,10,1503.4337,1406.128,653.1501,459.5993,0.30827,0.5071,0.12877,0.15871,32,9,0,0,2,1,0,0,0,0,48,11,48,11,131.7296,118.2675,52.2882,25.4123
VP07,no,no,0.98227,1.2005,0.19211,0.30457,54,14,0,0,0,0,0,0,0,0,26,6,26,6,1494.6101,1692.244,547.73,755.8647,0.61637,0.56094,0.38969,0.36886,61,15,0,0,0,0,0,0,0,0,19,5,19,5,74.6194,81.7462,30.551,29.7157
VP08,no,no,0.8018,0.96804,0.26604,0.51049,30,7,1,1,2,0,0,0,3,1,46,11,50,13,2121.9229,1933.2207,1458.0271,1490.0469,0.42272,0.47331,0.19222,0.2317,34,8,0,0,1,0,0,0,0,0,46,12,46,12,143.5105,141.7029,56.4717,55.9259
VP09,no,no,0.66134,0.81824,0.2193,0.1733,14,4,0,0,3,0,0,0,0,0,66,16,66,16,3548.215,3691.541,1486.4019,1978.1069,0.85592,1.0548,0.43074,0.37633,21,2,0,0,0,0,0,0,0,0,59,18,59,18,198.7752,225.9366,66.6966,63.9893
VP10,no,no,0.63327,0.83426,0.13328,0.21534,28,6,0,0,2,1,0,0,1,0,51,14,52,14,2174.6024,2226.6424,434.4146,503.3342,0.39781,0.43149,0.21259,0.099342,18,7,0,0,5,0,0,0,0,0,62,13,62,13,104.3492,125.6378,40.1717,32.8827
VP11,yes,no,NaN,NaN,NaN,NaN,NaN,NaN,NaN,NaN,NaN,NaN,NaN,NaN,NaN,NaN,NaN,NaN,NaN,NaN,NaN,NaN,NaN,NaN,NaN,NaN,NaN,NaN,NaN,NaN,NaN,NaN,NaN,NaN,NaN,NaN,NaN,NaN,NaN,NaN,NaN,NaN,NaN,NaN,NaN,NaN
VP12,no,no,0.70823,0.74072,0.19474,0.21929,2,3,0,0,3,1,0,0,0,1,78,16,78,17,2041.9539,1911.746,513.2192,517.7002,0.53063,0.65296,0.21841,0.2157,4,1,0,0,2,1,2,1,1,0,75,19,76,19,124.9192,142.8838,37.5435,37.1071
VP13,no,no,0.36268,0.50781,0.11529,0.064739,54,13,0,0,3,0,0,0,0,0,26,7,26,7,2111.7198,1924.79,528.6455,640.4223,0.23405,0.4707,0.05488,0.056831,56,16,0,0,1,0,0,0,0,0,24,4,24,4,84.5187,84.6653,22.8226,35.7782
VP14,yes,no,NaN,NaN,NaN,NaN,NaN,NaN,NaN,NaN,NaN,NaN,NaN,NaN,NaN,NaN,NaN,NaN,NaN,NaN,NaN,NaN,NaN,NaN,NaN,NaN,NaN,NaN,NaN,NaN,NaN,NaN,NaN,NaN,NaN,NaN,NaN,NaN,NaN,NaN,NaN,NaN,NaN,NaN,NaN,NaN
VP15,no,no,0.63991,0.71258,0.20878,0.14783,0,1,2,0,3,0,0,0,2,0,76,19,80,19,9518.2806,8946.7906,6315.3691,3463.0503,0.49432,0.69243,0.20496,0.15216,2,0,1,0,3,0,0,0,0,1,77,19,78,20,357.4008,380.1439,135.477,156.8773
VP16,no,no,0.71441,0.77232,0.19994,0.36698,62,13,0,0,0,1,0,0,0,0,18,7,18,7,2503.6591,2533.8597,615.7044,431.3032,0.50206,0.63411,0.28383,0.23136,61,14,0,0,0,0,0,0,0,0,19,6,19,6,57.0581,54.4109,18.1486,13.235
VP17,no,no,0.8599,1.0164,0.24737,0.44974,35,10,0,0,2,1,0,0,0,0,45,10,45,10,2117.9164,2090.8222,547.4309,803.0598,0.38322,0.57572,0.16846,0.15012,42,7,0,0,1,0,0,1,0,0,38,13,38,13,67.4656,72.3733,19.0181,12.7332
VP18,no,no,0.58868,0.70573,0.20903,0.20835,22,5,1,0,2,0,0,0,0,0,57,15,58,15,5325.4497,5204.9017,1146.1374,1470.066,0.45057,0.73793,0.30294,0.3024,19,8,1,1,3,0,0,1,2,0,58,11,61,12,175.2785,170.3932,81.7314,75.3747
VP19,no,no,0.88343,1.2891,0.31366,0.54977,29,12,0,0,4,0,0,0,0,0,51,8,51,8,2082.8631,1692.1349,1307.5056,1060.1386,0.55564,0.60764,0.18203,0.24142,39,11,0,0,0,0,2,1,0,0,41,9,41,9,92.2802,94.9215,30.0144,39.2504
VP20,no,no,0.71394,0.71094,0.14842,0.011049,67,18,0,0,0,0,0,0,0,0,13,2,13,2,2107.2159,2472.0491,366.7942,379.9924,0.51743,0.44336,0.2782,0.2769,67,16,0,0,0,0,0,0,0,0,13,4,13,4,86.3959,93.0908,36.9282,77.316
VP21,no,no,0.79274,0.78125,0.14725,0.21376,63,16,0,0,0,0,1,0,0,0,17,4,17,4,5300.5773,5273.8284,1167.1752,1319.5218,0.43625,0.58371,0.2595,0.18209,55,13,0,0,1,0,0,0,0,0,25,7,25,7,86.5719,82.6804,31.3873,30.3964
VP22,no,no,0.72079,0.65365,0.33459,0.038538,57,17,0,0,1,0,0,0,0,0,23,3,23,3,3520.5116,3544.2174,1151.1133,1212.8704,0.45117,0.69531,0.18924,0.30635,64,14,0,0,0,0,1,0,0,0,16,6,16,6,70.3365,74.4417,22.5467,25.3735
VP23,no,no,0.65039,NaN,0.15249,NaN,63,20,1,0,0,0,1,0,0,0,16,0,17,0,1376.9774,1487.138,847.3629,708.2033,0.20573,0.45508,0.16579,0.1087,77,16,0,0,0,0,0,0,0,0,3,4,3,4,67.1017,74.7637,27.6687,27.6713
VP24,no,no,0.75956,0.83086,0.18947,0.26485,2,0,2,0,1,1,1,0,0,0,76,20,78,20,1944.8043,2166.8764,459.3998,338.5594,0.63421,1.0243,0.21958,0.41057,1,0,1,1,4,1,2,0,0,0,78,19,79,20,290.3592,272.9798,157.2866,196.537
VP25,no,no,0.7074,0.79427,0.2896,0.37801,38,7,0,1,2,1,0,0,0,0,42,12,42,13,1021.6583,1013.0613,493.036,570.1073,0.32918,0.45241,0.14936,0.11648,43,9,0,0,1,0,0,0,0,0,37,11,37,11,113.0848,117.0129,49.2362,48.2177
VP26,no,no,0.73098,0.84219,0.12422,0.10999,57,15,0,0,1,0,0,0,0,0,23,5,23,5,4128.4589,4207.2897,1184.9637,932.9381,0.49772,0.57188,0.23844,0.2093,54,15,0,0,0,0,0,0,2,0,24,5,26,5,96.8624,105.476,51.0019,44.3876
VP27,no,no,0.50092,0.59375,0.16429,0.082495,62,15,1,0,1,0,0,0,0,0,17,5,18,5,2294.9816,2043.2961,656.7846,630.0222,0.372,0.41016,0.24564,0.32593,67,18,0,0,1,0,0,0,0,0,13,2,13,2,55.9013,57.9721,20.9535,23.9176
VP28,no,no,0.77604,1.0078,0.36651,0.45464,37,11,13,1,2,0,0,0,3,0,27,8,43,9,5945.4542,4706.9746,5020.0349,5315.4338,0.55448,0.99902,0.38408,0.48702,42,12,0,0,2,1,0,0,0,0,38,8,38,8,91.9266,89.2724,27.7346,31.7412
VP29,no,no,0.64616,0.90365,0.22082,0.3616,55,14,1,0,1,0,0,0,0,0,24,6,25,6,1188.5511,991.365,592.3385,472.7457,0.41375,0.61953,0.19832,0.50314,55,10,0,0,1,1,0,0,0,0,25,10,25,10,64.4507,62.716,23.2687,18.5175
VP30,no,no,0.70391,0.46094,0.24616,0,70,19,0,0,0,0,0,0,0,0,10,1,10,1,3179.4404,3463.7832,1240.0545,1427.6233,0.33878,NaN,0.094739,NaN,69,20,0,0,0,0,1,0,0,0,11,0,11,0,53.3886,59.1855,20.5022,23.5348
VP31,no,no,0.72969,1.375,0.10165,0,75,19,0,0,0,0,0,0,0,0,5,1,5,1,761.0611,744.6288,253.8776,187.22,0.42708,0.74219,0.083537,0.28726,77,18,0,0,0,0,0,0,0,0,3,2,3,2,61.9913,57.5374,29.3357,21.6301
VP32,no,no,0.49585,0.65625,0.080776,0.044194,48,18,0,0,1,0,0,0,0,0,32,2,32,2,1308.4521,1398.2965,162.9784,128.3649,0.33183,0.49045,0.12099,0.1173,61,11,0,0,2,0,1,0,0,0,19,9,19,9,88.756,95.459,34.5726,31.1502
VP33,no,no,0.66596,0.7759,0.17388,0.2604,6,1,0,0,3,1,0,0,0,0,74,19,74,19,3131.1741,2929.4047,671.8567,574.8251,0.86844,0.88322,0.35796,0.32564,5,1,0,0,2,1,0,0,0,0,75,19,75,19,132.83,127.2273,36.5761,47.3225
VP34,no,no,0.80052,1.082,0.1687,0.34691,50,12,0,0,1,1,0,0,0,0,30,8,30,8,6669.3487,6286.2298,2200.9463,2278.9499,0.4123,0.65137,0.28468,0.34403,49,12,0,0,2,0,0,0,0,0,31,8,31,8,93.8079,92.7226,32.8245,37.1665
VP35,no,no,0.61118,0.91563,0.18921,0.18549,41,15,0,0,2,0,0,0,0,0,39,5,39,5,3762.423,3511.6296,1316.2274,1207.316,0.44878,0.56406,0.21799,0.39704,44,10,0,0,2,1,0,0,0,0,36,10,36,10,93.7516,83.8125,48.5403,33.4529
VP36,no,yes,0.84375,1.0322,0.27636,0.31019,50,12,1,0,2,0,0,0,0,0,29,8,30,8,2445.3278,2171.8524,1050.5985,641.2086,0.33828,0.35313,0.15331,0.15784,50,15,0,0,1,0,0,0,0,0,30,5,30,5,76.0789,66.8812,23.1218,20.5612
VP37,no,no,0.56268,0.83691,0.18932,0.21825,35,11,1,1,2,0,0,0,0,0,44,8,45,9,5342.6114,4428.9059,1655.6031,1964.6236,0.35231,0.48935,0.17322,0.33407,38,9,0,0,1,0,0,0,0,0,42,11,42,11,42.3333,40.6618,12.7866,10.9626
VP38,no,no,0.98698,1.1677,0.33675,0.41486,14,7,2,0,3,0,0,0,1,0,63,13,66,13,1907.0732,2018.8578,808.1057,429.6586,0.89315,1.2542,0.38788,0.4129,15,6,2,1,2,1,1,0,1,0,62,13,65,14,172.0305,173.185,165.8537,112.4028
VP39,no,no,0.54644,1.0578,0.12816,0.40803,61,15,1,0,1,0,0,0,0,0,18,5,19,5,1746.5168,1539.9992,708.9937,587.289,0.42969,0.61328,0.239,0.23079,54,14,0,0,1,0,0,0,0,0,26,6,26,6,51.1645,67.8654,34.9606,53.2218
VP40,no,no,0.87079,1.1317,0.30791,0.15815,40,13,1,0,1,0,0,0,0,0,39,7,40,7,4906.6759,3659.8053,2095.6815,1792.2829,0.36979,0.63438,0.13711,0.22371,50,10,0,0,2,0,0,1,0,0,30,10,30,10,90.1466,96.729,26.5746,39.5492
VP41,no,no,0.98958,0.81641,0.36723,0.44727,73,16,1,0,0,0,0,0,0,0,6,4,7,4,1649.7995,1461.5805,627.5037,771.8642,0.41719,0.17969,0.2619,0,70,19,0,0,0,0,0,0,0,0,10,1,10,1,69.2058,68.8029,31.6312,21.0027
VP42,no,no,0.65603,0.7092,0.16495,0.10274,44,11,0,0,1,0,0,0,0,0,36,9,36,9,3918.1421,3609.3585,823.0566,730.9274,0.49121,0.5957,0.14479,0.21264,48,12,0,0,2,0,1,0,0,0,32,8,32,8,104.844,123.7707,35.8345,51.1836
VP43,no,no,0.53892,0.67396,0.095654,0.074729,23,5,2,0,3,0,0,0,0,0,55,15,57,15,827.6149,865.673,292.7622,229.791,0.41047,0.59583,0.094177,0.27351,30,5,0,0,1,1,1,0,0,0,50,15,50,15,153.8185,160.6983,44.3659,40.9366
VP44,no,no,0.41256,0.40625,0.15787,0.12147,28,11,0,0,2,1,0,0,0,0,52,9,52,9,453.0033,569.6477,266.6686,392.0049,0.25095,0.38379,0.06316,0.11401,47,12,0,0,1,1,1,0,0,0,33,8,33,8,111.3161,111.1292,59.8162,33.9177
VP45,no,no,0.61144,0.7041,0.20158,0.45613,46,12,0,0,1,1,0,0,0,0,34,8,34,8,1551.5973,1606.7785,471.9858,442.7951,0.33456,0.38125,0.14614,0.18976,46,10,0,0,1,0,0,0,0,0,34,10,34,10,110.2465,117.3635,23.1125,28.3903
VP46,no,no,0.50996,0.59005,0.16459,0.14647,0,1,0,0,4,1,0,0,0,0,80,19,80,19,2298.2504,2250.6586,612.3925,503.0434,0.36279,0.52187,0.11308,0.15003,0,0,0,0,4,0,1,0,0,0,80,20,80,20,102.4713,110.8451,19.415,19.1286
